Time_ms,tensor_fasciae_latae_left,rectus_femoris_left,vastus_lateralis_left,tibialis_anterior_left,soleus_left,gastrocnemius_left,biceps_femoris_left,semitendinosus_left,tensor_fasciae_latae_right,rectus_femoris_right,vastus_lateralis_right,tibialis_anterior_right,soleus_right,gastrocnemius_right,biceps_femoris_right,semitendinosus_right
0.0,0.013309246983932916,-0.007877819832063808,-0.013865328849718844,0.002294269901186564,0.00986991895761304,0.03523231464746443,0.006571843408612187,0.03934617069035261,-0.02259543367460159,0.007803035661231527,0.020859280257544754,-0.042913487915985045,0.0038259996538700697,-0.0017541262958449641,0.01632153345022424,-0.013998792217984335
1.953125,0.006828636553980676,0.0029026461969030616,0.019623457439562567,-0.007449658579469158,-0.008765886269427701,-0.030261196850435476,0.02542126272306763,-0.00836611035086333,-0.002612746037782236,0.009996243324781329,-0.01020254791209699,-0.031237280424495025,-0.010084791795331708,0.0007643827761331686,0.005728360101276149,-0.020432916407583348
3.90625,-0.008423162025274905,0.020537631339203714,-0.0019300933478350706,0.0058278908978037815,-0.015776875074370297,-0.0004830065242349149,0.01639780528706397,0.0015724398890134144,-0.0462607697156017,-0.019467276596179243,-0.025390374422017265,0.003102803505374291,-0.009506911836506673,-0.008074465971055442,0.22790937894088448,0.032045172138479586
5.859375,0.003983397649158382,0.019927655570882025,0.008186931198645086,0.010060888993795447,-0.01508690950172006,0.018638431188139428,0.0015468669063409088,0.02275878445715256,0.012311125530104406,0.006550508418853962,0.012927601663318133,-0.0012390599026518097,0.0014724873033914075,0.01100360934441741,-0.03616089628265,-0.01309960559112738
7.8125,-0.009573295082855813,-0.009466156354600413,0.042969339056530005,0.01753693968309164,-0.013487187559262792,0.010121503074508495,0.008984545168867222,-0.0068098829755859815,0.01179782716324995,0.01108004928255856,-0.0329377333000117,0.0024116228366556796,-0.0278592711775782,-0.014594196282293602,0.005555890026363565,-0.01330977027949084
9.765625,0.0009174434319286449,0.045832376890786994,0.00642649686706555,0.00821202700979902,-0.01025962700295934,0.021271201685495265,-0.017372622340712407,0.047324726956872,-0.039898282700123,-0.01408907284303799,-0.0069265730850216565,0.04069904571787774,0.043918309049320835,0.011619552188833218,-0.0031792290351211673,-0.02900826270271558
11.71875,0.029739982168911334,0.007349287364313736,0.00831334541607027,0.006894398663922222,-0.04149932036369347,-0.0182832366978898,-0.012766258641555148,0.0015238269108470634,-0.03132179012151635,0.04059531829184411,-0.028092471614425466,-0.02065853197657306,0.0021821161923927914,0.023100870337152503,-0.007234245725223838,-0.02246411193384315
13.671875,0.03698493550849842,0.0010773043991470185,0.03565777714576153,-0.030852997976922487,0.014971871292629094,-0.010849413990334154,-0.021733100746948703,0.008234435164402662,-0.0002243073823841821,-0.020388564502728326,0.003209663857892153,0.0485232764347027,0.0045321491216673065,-0.0019249381686599273,0.008317495651258958,0.02011704280890177
15.625,-0.002576765481416845,0.0222393126880126,-0.022033446611962416,0.0077241237236545055,-0.028861834008308978,-0.0007235463823860359,-4.933509507157527e-06,-0.02534401594068261,0.002457321996102292,0.009627040481096192,-0.025453987065770515,0.012966625736515597,0.03669611267143456,-0.03764275286383389,0.013969080176206334,-0.022042890417836563
17.578125,0.00686815058047997,-0.014706483815689968,-0.023003510611468606,-0.002634854938635069,-0.014206650350515777,-0.004912778765502172,0.008189890069341269,0.04014725740457568,-0.031119824072283163,-0.02300918015533253,-0.03479459921443549,0.009075984051208342,0.002407751909762013,-0.012394797878197843,0.0017003789428387422,0.0017367717644789504
19.53125,-0.025194046828801397,-0.02067998948216654,-0.006519571359429274,-0.030289158518592155,0.0031234532994122563,0.011743862657224841,0.009367085564266327,-0.0015505450121012726,-0.008150762733520719,0.0066712326259834275,-0.030223452598917844,-0.019302911206161583,-0.023320156187218607,-0.004899733038670902,-0.036308257684125114,-0.006672364751304211
21.484375,0.00693970347888497,-0.005922005872899621,-0.024876623230050625,0.01042221703235829,0.9601288444346713,0.9917717912303166,0.014720901788417489,-0.015824497841467926,0.01334011354625125,-0.015370052778935871,-0.015978738112443734,-0.010884623987999924,0.03346262193397825,0.9790127705350264,0.009342331442543239,-0.00920106900543819
23.4375,-0.029094192787750363,-0.009687458583185033,0.008924296357508073,-0.015055989978527824,-0.0413245382413883,-0.000275259161224637,-0.009517880596700626,0.0228534333165006,0.046628707419046594,-0.013018532708387017,0.011437490171987775,0.001049777742506958,0.013527064695144916,0.0068165899748908075,-0.00781310118557939,-0.0013381632378979614
25.390625,0.008361505125435187,0.0445359974828452,0.011948505731246268,-0.014967941479584666,-0.021994548869303458,0.013869571400706104,0.006263732149388313,0.01473035757849336,0.009843614621246497,0.009354556609404506,0.020737935703873056,-0.0052748335943533144,0.02391665639936227,-0.04110994820386611,-0.013756010931356267,0.03312612403056776
27.34375,0.0455952156440324,0.01710969813214996,-0.005033213010674006,0.0034313900503999467,-0.00503498023876179,0.030666391406641274,0.0035786108978160063,-0.04128865414660123,-0.010715356840720582,-0.0029322910664820517,-0.01753096815592641,-0.02283163485887148,-0.04331333559782346,0.03025935534274575,0.011237821592716801,0.03802349530061281
29.296875,-0.0135043280426347,-0.026675933044389734,-0.034700517464926944,-0.001156185034526872,0.0009871507621825,0.0142469670013886,-0.05841028041361069,-0.02551541797985752,0.032527916301857245,-0.0048263144588029435,-0.004294862908373412,0.0020442309144261205,0.001125529996850573,0.025412266598670494,-0.011578249669408139,-0.0066963229421177104
31.25,-0.01241616005368099,-0.017339218406333356,-0.008889466489080488,-0.034735370257226034,-0.017737020104521786,0.024423426343241218,-0.011212835536164643,-0.005592729276719748,-0.004669587554637297,0.02584786702510885,-0.020216509148846488,-0.027132111653301552,-0.040467741648103635,0.010562833268952685,0.009864829908565624,-0.017864534882491144
33.203125,-0.024129556464460744,0.010683362893098649,0.006223137309221841,-0.024747000829136858,-0.04925352622498589,0.021040132860416113,-0.012908636080807922,0.004150437486900589,0.013468751795329935,0.011952787361107609,0.8951429904806891,0.01741333505191934,0.009716373546941624,0.01810492788337474,0.8476381462153427,-0.03933073876058073
35.15625,-0.024441230387886367,-0.007564148669066503,0.027037535742625265,-0.008696423380754523,0.016601765534066663,-0.00891619779771041,-0.0006631820798339726,-0.029854027958913835,0.016285863685910493,-0.026587480702243448,-0.015169914706944383,-0.024973337024719936,0.027568095065686627,0.022556329809230908,-0.0052688259747857204,0.034904479087946326
37.109375,0.018710105134694014,-0.028949586786547823,-0.013710445065925373,0.017086414807342777,0.005425034443037443,-0.013425122055485355,-0.013357195363018687,-0.03013709643641799,-0.013732722353584657,-0.02289096855097513,0.021242611175653327,-0.01698713860638094,-0.020145614257303428,-0.004406249510849356,0.02160173910746135,0.012628310148901112
39.0625,-0.00816754418259883,-0.010252120780407272,0.011089741256695625,-0.009630936809447611,-0.027026838664514653,-0.030310975216431422,0.01666892278137473,0.001520398071307301,0.025767129842102558,0.03805565659861407,0.035422455059091085,0.0072276286262601885,0.013178278007905395,0.00011336452396215296,-0.01667008938789224,-0.025114054524443766
41.015625,0.022479570008535205,0.01163637049196903,-0.0013120739248782096,0.014513849233858461,0.03070466790418927,0.028118772096059574,0.01714512486921648,0.006823322189331754,0.0015156141500640332,0.006814752719218339,0.03516056115921792,-0.04707851366272309,0.01597377460528592,-0.012048127042516848,0.0011401752892120957,0.015277372086641884
42.96875,0.04808423834504508,0.41809536999279623,0.0026454657231319745,0.0026963845617942414,-0.009064186347787315,0.026259632815181847,0.001886173311721432,-0.005933267366802247,-0.024435279206507846,-0.010415382958606402,-0.021206794390755658,-0.0026877696232886095,-0.013266664265242326,-0.015455779358888326,0.023793869147107766,0.013525735320316555
44.921875,0.011024645476531165,-0.02418597338989178,0.0021949548970931327,-0.03419284043066928,-0.022467939605009955,0.001762336384142834,-0.029753281714067454,-0.05753760501121079,-0.00972756222793594,0.03660640114860702,0.02371628712591527,0.0009371754335122426,0.010968399550103057,-0.017724697413505228,0.010524781803334193,0.005722742197571898
46.875,0.1433167087830286,0.011347582500023039,-0.02145960196135129,-0.022243287648368595,0.013037485487290954,-0.007151726735466239,0.018981059149969785,0.010199946621573733,-0.0015544256384055952,-0.008255087323399602,-0.004388964923257271,0.011890804215729479,0.00625337580392239,0.022890713990566504,0.00011784933082523933,-0.016766529296824866
48.828125,0.028686318716123795,0.006481610362416957,0.0045934644646866245,0.04341306856944164,0.006174375877744294,0.023364529016790137,0.020905545079715347,0.0316443376221055,-0.0041983784797739706,-0.003579907317709814,0.03330484985069691,0.006816601677232751,0.05528652124133295,-0.008741442647532545,-0.006895614268531065,-0.0037761867731039333
50.78125,-0.001354521681852314,-0.010064459595064664,0.010058078566816443,0.012095571051705072,0.004868398870548345,-0.020643737232096445,-0.0037691613005827167,-0.011785412102167242,-0.015591734632002696,-0.033953805812132684,-0.0027096395828573694,0.017934813646401832,0.0321052070895508,-0.034005190587232524,0.01576032428166145,0.0020610467062170006
52.734375,0.021736147620456038,0.05104793615635678,0.014269652821326407,-0.020080004609771246,-0.0014241330763356513,0.007066622098352268,0.02791852849198647,-0.027808254367095355,-0.021483668712153327,0.030161451721945884,0.051854101170757956,-0.03129051487931402,-0.01993635630397817,-0.011317224657636465,0.0006732845628830219,0.027465572571268197
54.6875,-0.02569259504319316,-0.011021675748801427,0.010532838263650968,0.001718307584284639,0.025058744363722203,-0.019711178970763507,-0.012050126852429718,-0.009716262611912668,-0.014493471996935878,-0.01612387452422291,0.018322401999000558,-0.005183884374511932,-0.027958318614449813,1.3636123242861723e-05,0.008855460605408384,-0.026052019171178057
56.640625,0.027749054787228306,0.03244733140709912,0.002963162256643104,-0.00084058039867423,0.007621022772368623,0.0042233017394592365,-0.015456834727526288,-0.005253277789443628,-0.0008571264583734577,0.022823671059469055,-0.025768577859899583,-0.048403732165794695,0.01163250096885082,0.009166406921149601,0.014691134533046228,0.006738342197655068
58.59375,-0.006029505852043021,-0.0035540611611260824,-0.005976211842464828,-0.04234589898362511,0.007435569279053668,-0.018231947620653246,-0.014872893624173463,0.010958932273207638,-0.016629359789169035,-0.018780383786899998,-0.028691451649920718,-0.03224862576249502,0.014835103453629485,0.010154783902391986,-0.014013533715194407,-0.0029830457945523854
60.546875,0.03213795772253108,0.005449660125992837,-0.041677732695848006,0.009020009097484715,-0.021830345056912434,-0.012600819998292776,-0.00015432458725773797,0.016431729790243134,-0.02588967574111359,-0.014327142957873622,0.005938789057866381,-0.0032795204644882024,0.022149983856893797,0.018482333714101698,0.03088352882077201,-0.005724029507986117
62.5,0.04741956097615898,0.0004268235744432982,0.0005111202735234143,-0.006701285669327951,0.0028746430323326687,0.0074463322001396895,0.029406866541950172,-0.01389280217761232,0.019291429042932354,0.0027159996128088195,-0.006322477321203706,0.01961991821422263,-0.015723697107898425,-0.003728873408614762,-0.010967904528161473,0.02065955819918571
64.453125,-0.0012533019819165154,0.014777186762832864,0.016219491626086324,-0.024257122397564827,-0.011730357734466108,-0.7575532483773734,-0.0024931738022272686,-0.015405758619809383,0.00749992423438286,0.0016691367459502355,0.023131307332696277,-0.02357221957382888,0.016524669157578994,0.013559599897497627,0.011624840236268471,0.0014814485112203517
66.40625,0.038549580168325305,0.005636218965870331,-0.0311284433259888,-0.021758670542893058,0.008925986629475443,0.03606643285454521,-0.022126700555159803,-0.01159087330663222,0.0015349164225530916,0.021433561658387393,-0.04213417694743719,0.01125162797464774,0.02088873528471743,0.020597877466372302,-0.015540193446497454,0.0051625121852231295
68.359375,0.011784764567544405,0.004501167153755658,-0.0006561369604428586,-5.619588584084365e-05,0.01301659447377575,0.017658453332376218,0.0009645558804728065,-0.0311754612200414,0.01774586486757868,0.006493391530022399,0.02821919756433856,-0.006342346356349977,-0.9501385309972789,0.014997257234816649,-0.015418672266230593,-0.02438251898188239
70.3125,-0.0029023369980545415,-0.01631736678705459,-0.014302940810685554,0.0060133838116477,-0.013894622256595428,0.03577977697182914,-0.008108285590315935,-0.008289441623142886,0.006385409660752014,-0.016246370788659155,0.0022754299608153715,0.0021211228607150817,0.011474479991836862,0.009219709608056466,-0.0030285449824313886,0.02454144026885733
72.265625,0.016297326307052072,0.006697702592843576,0.012083976311622318,0.009697329805909611,0.012869204006328327,0.004628534043948686,-0.023938740800764528,-0.039366110349812765,-0.015041427091139321,-0.022435311834114333,0.01010258730438363,0.012012650475680729,0.02515317405038779,-0.021517650808435866,-0.023289118157857964,-0.00018729240883933644
74.21875,-0.005791164473949471,-0.0042845869161133796,-0.013458159399840266,-0.00016119453732876197,0.007733104409843787,-0.017683542634417418,0.02370623492800342,0.026312823464337602,0.00812441031965231,-0.017128948505127813,-0.0031945418869375602,-0.026720181308252926,-0.004708169834113089,-0.009182550936085847,0.024285842138210667,-0.008473559174172663
76.171875,0.04806091374896051,0.03278246488925838,0.00017732694810463942,-0.017059263689208216,0.002658481967406512,-0.009461944338815267,0.030275470636860664,0.030893161308619632,-0.014822325436684863,0.01845738830557475,-0.010737127157557091,0.008565945121647815,-0.026841752468561443,0.02517055665581615,-0.01005884043229292,0.005173579777817866
78.125,-0.0073286119937234495,0.0012407982870400079,-0.013083761635242342,-0.9746347799336366,-0.033156116016928944,-0.009627143983181803,-0.021299743398894434,-0.0028096390484863,-0.018103689540048703,0.016007491657340955,-0.021983617879730716,0.010496050543556413,-0.024993799458107206,0.046314481084857535,-0.012622595762816866,-0.0027772701507870518
80.078125,0.027689896482396836,0.004637366763780245,-0.0037032543779576843,-0.009175491914524714,-0.016922870538055582,0.014032311928137482,0.018480332099766322,-0.04111048302236634,-0.019645500782262574,-0.014130814615099152,0.03261043460058197,-0.0004045795107616814,0.03070067859365159,0.011304213296455824,-0.004552247335767064,0.016536284029677127
82.03125,0.021264603689134482,-0.00021865791573277875,-0.01509812504366259,-0.030158361330797707,0.010818732092717012,0.007300285735226918,-0.005766879699126545,-0.016493880950226948,-0.00889774477283247,0.0010517248586073464,-0.027662531923462838,-0.022920614184254177,0.023135343271720083,-0.022732038916239886,-0.007626150416796451,0.021412383095969715
83.984375,0.03451075795995507,0.010872804196130785,-0.038924410954417926,0.034532601694613245,-0.021046805133569668,-0.0005218467849290553,0.0364948963560846,-0.02002716252689631,0.011652158383804699,0.004999646728432744,0.00402236568985492,-0.00957310200336627,0.04028614296276226,-0.0003684486162156943,0.005539166907295886,-0.006096905881209286
85.9375,0.004152260532275045,0.012838970000793442,0.01001360272383243,0.02321399044397987,-0.015626680699929636,0.006967090425690712,-0.7439441393691895,0.01921692199664814,0.01933681050913802,0.00022875075358825555,0.004270906185559817,-0.03042435898828347,0.00939073065950221,-0.0027436464654966176,-0.014813868675940456,-0.0077580624526036295
87.890625,-0.023927509357208276,-0.023337487457741894,-0.02830425101611392,-0.03396917355175556,0.012637414334876418,0.009669302833020676,-0.02047739720573206,0.01555005302559957,-0.013878260742042372,-0.029959854495329424,-0.017023230604114863,-0.0011182919959485504,0.00843943576444275,-0.0016896520629442466,-0.6635556324429921,0.016431093291952362
89.84375,0.015481120933024728,0.0008165126658832007,0.0009405659546466561,-0.012524697604913638,0.015941694395730725,0.020365524330679702,0.005305845846778761,-0.5893628291741769,-0.012173627846747652,0.019615122506755175,0.012134107164662263,-0.02660219757459199,0.014647903275190579,0.01104455269260216,0.006650586631122207,-0.007055208238766299
91.796875,0.0018143041437297123,-0.006726439439464345,0.020697487708921658,-0.017891693972238786,-0.007468425442748089,0.010957161754775771,0.0007062465984314882,-0.015665424394689282,-0.013108668459434503,0.0018527171807184379,-0.016115002391965484,-0.49215531220789027,-0.05559150075355719,0.017761173385889475,-0.0017058761553591522,-0.010978508082215262
93.75,0.006495865830481221,-0.0004245913952264991,0.013342815179471099,0.0104814935681139,0.016221965101240552,0.0009355204888436913,0.020809772273939604,-0.011563016068955214,0.012540354881058452,0.04518649393427171,-0.00850393450460393,0.03262810986048438,0.007264882493696528,-0.005544467924532688,0.02057050459999208,-0.024235569371423488
95.703125,0.01637939425672048,-0.021698178744521675,0.0036222774780104126,-0.04159395730930986,-0.011707868480418665,-0.013129839502025183,0.008087061495956059,0.03157249547642688,-0.031075712041190213,-0.04720339057633046,0.003103644906006832,0.01945354133465822,0.005609466167242033,-0.012466722273255317,0.007165842165458469,0.006920312954412607
97.65625,0.0024648528167927936,0.00875477849963061,0.002924290209627924,0.022973175998167963,0.01423374122274433,0.021588851106305092,0.008128365177939504,0.027121478707669743,-0.004519014561700619,-0.010002139483765616,0.02040088515022117,-0.038647100331576596,0.017645488386689216,0.020700292456063477,0.03781822028345861,-0.010380765882286664
99.609375,0.007641734808546966,-0.014293933041487556,-0.00817524134457068,-0.02994613455954899,-0.03196040940404223,-0.026254589735858355,-0.004633568321948099,0.019552657697255997,0.046336723856543714,0.0004860820602182146,-0.004598214426842561,0.02905411676765519,-0.014266157839977693,-0.004123319695227102,0.0014759375779841777,-0.016829253031596818
101.5625,0.030216999132698763,0.016561823871793745,0.023628907967068652,0.01714888584386061,0.021778971796700995,0.03297288817831455,-0.02193597136737684,0.027460639610143788,-0.005460693553614701,-0.00026303600827884,0.0012916446597442263,0.011280965431984867,0.0026453704103906995,-0.01311100387216748,-0.00543654576123174,0.005648515357562298
103.515625,-0.01236339209047582,0.013136236042231393,0.010482126151086386,0.007402492966244083,-0.006361717603738663,0.007994009243935167,-0.010276841634818927,-0.019331432026647558,0.011506540136868547,-0.0008772190789347981,0.010691947530237925,-0.011618542287970119,-0.017589331644302347,0.028139401979672022,0.010943900483119606,0.01008338981601921
105.46875,-0.004829004254395231,-0.02124187811473194,-0.022280526036826384,-0.0155329215165064,0.00047389353052100356,-0.00110153206622233,0.00510310247339038,-0.019003004238858832,0.007707285168393725,0.031242208329982757,0.005915540912382952,-0.021322704078106228,-0.014590922600603158,0.002565133073618398,0.04470166703676377,0.006448304229525115
107.421875,0.03265004607261834,0.02440031112752383,0.006560721405903186,0.06046277271507321,-0.028303362576190674,0.024421909217939856,-0.021301917498137958,0.02245189108829358,-0.0139949779029255,0.03059198978662265,0.00524306966931328,0.03040671991122195,-0.019608997047745495,-0.003314814585312563,0.007348274577624342,-0.0022820958544411867
109.375,0.030091363952248394,-0.006802919213329903,0.002321191534245791,0.01172179458357724,0.03287003105158338,0.01716442576246647,-0.009093876857208909,-0.013321759177157052,0.01116313963121107,-0.03857442713259172,-0.022176628128093893,-0.006465830719272602,0.007637972765646761,0.024208597098139713,-0.004080993406371422,0.001473773679529439
111.328125,0.0005453560669794786,-0.031005432684684,0.01802967409804886,-0.024268027632071348,-0.0030240380142877183,-0.02562354317369361,-0.024823279835955767,-0.01200586604514315,0.013502777937164881,0.01842521193964586,-0.022996840076627553,-0.010736076837153646,0.051827819595641894,-0.007979959911145865,-0.017647665687280285,0.016263647795317505
113.28125,0.02862801136374586,0.0032994196400762403,-0.012491396358748835,0.030451669320135745,-0.006093093848449813,0.03116710461256358,-0.01915796836103902,0.037775189476113476,0.007757008967722922,0.025139903153111154,0.025886100294418936,-0.05151792360357496,0.02290345883462741,-0.019000697757735305,0.007639462852483977,0.007109341183601493
115.234375,-0.012003866786502115,0.007328544771255551,0.006717968386311898,-0.010765529281765584,-0.027526004431816024,0.009210815593169426,0.009532663899799405,-0.023812925922602306,-0.024029965521607223,0.0031733999716861937,0.010056606236217918,0.004304658333934954,-0.020165130818703015,0.022008550562623172,-0.041978822714849644,0.018983023116674557
117.1875,-0.0264568885214444,-0.005453331723969647,0.007716817432533932,-0.0034610714117049397,-0.02320855497302729,0.0037314208914083977,0.0014730654865784554,0.019177003532834257,0.01778846413946735,0.030929102790467514,0.006385527899077767,-0.05619892978198432,0.0009428725784678427,0.0026209580942183363,0.01724537479835887,0.9199311843919216
119.140625,0.05179391468133858,-0.023364646806330814,0.01588046137163071,-0.0375989373079493,-0.0104002726106899,0.017637962240713824,-0.009340172022499416,0.02720602100775572,-0.0198457467303876,-0.009628871061274243,0.00805364253250988,0.03811780064128479,0.029996859185052096,0.03605798881050906,0.011446733791566544,0.9529809351662356
121.09375,-0.010392473501746545,0.010963772361094824,-0.009900537934446216,0.011432013652430396,-0.010707988634192658,0.016767390072297727,-0.01534607634667449,0.02734909322622641,0.030750712312944607,0.016767458561028913,0.0335028163060174,0.011922067424744434,0.039310801899019435,-0.007908433563597734,-0.018574109805217755,-0.006380913836545966
123.046875,-0.022118075924097376,-0.009438562961151876,-0.021293968237934773,0.004898621867782188,-0.027772274326306995,0.009912738020637309,0.006606297717981678,-0.016375959282175733,0.0039315409391557764,0.007108850106718571,-0.009715638720549475,0.9686821806010197,0.02186870217223401,-0.008329794689552366,-0.005346049403170571,-0.007285990982892144
125.0,-0.005641019885808747,0.011935265958779454,-0.008881942420887953,0.025597287681382114,-0.0006200827949986206,-0.01406458072358948,-0.008372072131349665,-0.009988899235802564,-0.022910369387365945,0.0038414195533398292,-0.011915243334250048,-0.042410460789848246,0.001114821953054204,0.0020966332160591013,-0.005455323001743767,0.02828459828246976
126.953125,0.005184701063072989,0.9701050117503103,-0.006458137627522539,-0.005123764704220061,0.01843729863668164,0.00152765882087805,-0.005414725069816948,-0.02279651657938242,0.006742418252091937,-0.017467296221562165,-0.03571977088393035,-0.012295397368769598,0.0008048759480605629,-0.027708314061675773,-0.010306156317902347,-0.0011111963664711525
128.90625,0.028193530772698136,0.016473501801897196,-0.03627078341767438,-0.00037064206902657555,-0.004607632873098293,-0.01367536852310818,0.010877390199459243,-0.023545184163342597,-0.012541744674521212,-0.012298786664950467,-0.027205986534852813,-0.01567289791201218,0.007266160602827562,0.00769371044991323,-0.003936683650184889,0.02059228679742639
130.859375,0.045049499168050344,0.01935444572741045,-0.02918090969918958,-0.03064929817689418,-0.021769733197181604,-0.006100589622022645,-0.004182014504504379,0.004838917347298301,-0.01553949983690021,-0.008131232162321209,-0.029703768715827934,0.0023533245358172247,0.019042503252055153,-0.014398900736517286,0.02586953389459146,0.02004738431655178
132.8125,0.02100428833597056,-0.018379583003425824,0.003666672319186504,0.01841484362699344,-0.03133639144704816,0.035184607280609986,0.017278384475696767,0.012011680980321227,0.006866538396912219,-0.014794991726746086,0.006450147308333233,0.025972879041115726,0.020336816491639625,0.00813614539060555,0.88785882690141,-0.02006863313160294
134.765625,0.0048774333169956585,-0.012003558415604215,0.01656306116350214,-0.0001870778526289004,-0.02396960534766439,0.02042394072613952,-0.010858940930241938,0.8582896591038296,-0.025024827426065783,-0.008534776120723371,-0.025852321182136376,-0.017145491463800844,-0.016043900539587198,0.02489670428712815,-0.023511947379872025,0.025907359933837783
136.71875,-0.008039352220165082,0.03633905654582985,-0.001462681994348793,0.021641663119490676,0.020608750672853053,-0.004021735813271889,-0.015221225267154144,0.02403814907091618,-0.013423898089965776,-0.021268271091022063,0.01030634714282499,-0.020654957399362718,-0.004714306939956724,-0.02553802786362883,0.002316740688075136,0.009293917827556345
138.671875,0.02515620347987604,0.0021832046684448227,-0.02444568483496167,-0.015913008711562236,0.011019242739137567,-0.009202098512355992,0.015253899308997168,0.0003905496983585113,-0.042215921590154325,0.007129250181784146,0.015390045338775471,0.013545972244119676,0.0138063048016532,-0.019485216079448944,-0.019348497865624925,-0.0022636701135239265
140.625,-0.041373038848458624,0.024179156866724734,-0.018885357478143173,-0.016178254247119186,0.02638516119375226,0.0033922312963193895,0.032830478848708176,0.011661124530928072,0.025164894321193287,0.026564098802036563,-0.0008141373445139262,-0.009519711825890098,-0.01390466282558237,0.005656403143090172,0.01562917620488808,0.011777958317336778
142.578125,-0.0023459710544967943,-0.018502575490931955,0.00035207704955351376,-0.00827539080632425,-0.005556767289565494,0.0080750633822296,0.012588333944804672,0.008997217873438044,0.002884107179570054,0.02610874207645116,0.044290286221101816,0.015116125115342792,0.02039893255913791,0.007036690900025122,-0.007936001127633308,-0.01204035149589143
144.53125,0.03236221016580963,-0.0012051303530259039,0.027004929285012604,0.005845120348965789,0.3344653827813061,0.010593422376121629,0.010786652113975819,0.3079019083128101,0.03200595617744456,-0.04125888778692847,-0.006323669129048245,0.018687045108660014,0.011296249651554987,-0.009885524026095754,-0.003566746753006553,-0.022583918978257952
146.484375,0.21258050336512885,0.011844514476582555,-0.0036287691927961167,0.0013516836585741798,-0.025693410342266305,0.009809286158395632,-0.008265092443883862,0.00392196158219283,-0.05594620495592066,-0.002276038908776679,0.02670654149905642,0.02932460451316364,0.23302937948322303,0.002762381728442758,-0.010204176190875325,-0.00947264282203343
148.4375,0.0012936988600741816,-0.0012473422559035872,-0.009436928999113907,-0.0006123639359715153,0.009292631383234155,-0.02807059788638481,0.00995791549544507,-0.007266245089095545,-0.021503404196525917,-0.02480179592142543,-0.0004033396755089098,0.02388616002717579,0.017652702099852466,-0.02989674287729064,-0.0015533833398621783,0.09032306166148203
150.390625,-0.010222187944530869,0.01319915737841992,0.03548084466745703,0.026835195708930698,0.008800393054324172,-0.001980861734315388,0.011476702778935791,-0.02641734777943173,0.006542120302081397,-0.016469559226579857,-0.0007137107656020474,-0.03165442494915614,0.003898906588772685,0.0021675861005097854,0.016647997362787607,0.011375461671481188
152.34375,0.018650805085960193,0.006969032507760742,0.006314044132613417,0.030870081220809184,-0.004460123156920461,-0.01331416564281418,0.03254118047363048,0.010215845554554166,-0.0037615491721830112,-0.022184996294999117,-0.012878021648459336,-0.012987400096012347,-0.024386083507505454,-0.016013389789979685,0.014749611349467277,-0.005652063479043273
154.296875,-0.2479754609334808,0.004427748968819143,-0.0061645431712016785,0.008835610235937673,0.004423798971653004,-0.005190051956609947,-0.021506839053446355,-0.012599798291400179,-0.013829090693529696,0.002442781435166204,-0.01001390854124474,-0.006815009690645177,-0.004580192875226027,-0.013421851113119101,0.009366953948662264,0.004790348258739981
156.25,-0.009053457180935047,-0.00849072674772225,0.005844732285057408,-0.028900884560900064,-0.02199218853644205,-0.023484627554912107,-0.008898993459343913,-0.006693203321968343,0.00023176017479873263,0.027108774126907664,-0.00395184141804614,-0.01348979168206667,-0.0013952693275596534,-0.04578825369115167,0.0025397517583487946,0.027281981570922285
158.203125,0.013320771166249188,-0.016865948016765744,-0.02284311566570998,0.021337411548505016,-0.009853458444561227,-0.007440493877221945,-0.048360667050427165,-0.03616254860619701,-0.004391100139808848,-0.002015754034842467,-0.5129749316610352,0.019607885043540132,0.03441425767542807,0.014465158545754751,0.0036679656152453833,-0.008082442317145461
160.15625,-0.0166262110107205,-0.01899915514713454,0.006863490684554848,0.010689792111025782,-0.04857861961841921,-0.015434917758134064,-0.0010879216851348381,0.03246000473279194,-0.014976857720547299,-0.6072862899917492,0.009171351825730477,-0.01468126494700899,0.015332522384458416,-0.0035052979213041923,0.04020554250078345,-0.03603436063072246
162.109375,0.03223539508709243,-0.037414682155396194,0.017468344614911115,-0.040000040224985406,-0.00368017830015711,-0.007311104603896438,0.03298000735609654,0.011825675085092042,-0.011582031464020554,0.02625550285890243,0.021214318568115117,-0.025490776056087655,-0.01545498686245186,0.0036749282728114913,0.04764754001655601,0.010950822478527356
164.0625,0.03880859211731864,0.01279832113844215,0.014297275185926306,0.0032566083445427223,-0.029134436599422747,-0.014489531525024829,0.006682981694435251,-0.006114803666096355,0.021162210395516988,-0.0009371482590715978,0.03298885732630389,0.02458099266786506,0.00848781760844064,0.02257990620694694,-0.01858652900606537,0.010955035982222335
166.015625,-0.019578096608246942,-0.020891310057572197,0.004420261117474512,0.014526736064198482,0.020748333030856242,-0.01795958737844132,0.033735593869882494,-0.01171054588446825,-0.027319723980154236,0.015965555563826027,0.01400187961401703,0.05475252874194956,-0.006730224450048014,0.02446679975741001,-0.0321550272478688,0.0022434889006488325
167.96875,0.0023083609152488266,0.017718641937366785,-0.005479034668818836,-0.031120569433613583,0.03735582422516181,-0.03945854662067533,0.024117706449953473,-0.005050281314516348,-0.015460569321636846,-0.014427243795725415,-0.004384223774865923,-0.03075737349977224,-0.027698354357924698,0.015471067145468578,0.03934007077928535,0.010453736684354798
169.921875,-0.007219932801988358,-0.014422124263684286,0.018719476026745282,0.0032703079891473453,0.01871096032227425,-0.018452064985121055,0.045823075083133644,0.007947291561143835,0.0009987119672708136,-0.016541871484098622,-0.006659918233040442,0.018303735000549597,-0.04102833475233725,0.02205251042647175,-0.018813515253283297,0.002894125307485155
171.875,-0.002665827761002815,-0.022432228428809254,-0.02932064491675419,-0.0255433297730422,0.012802321022574163,0.010629097247499043,0.004046928189555048,-0.026786727080563368,0.04104467639540357,0.013902796622051808,0.017181523127234213,0.005818645537127637,-0.017181878998422644,0.0023165147529012847,0.028687085564753967,0.01217722575155541
173.828125,0.010486068691472939,-0.00759474327319589,0.015763124211400963,-0.02693893899763719,0.043152061495342314,0.012383754381995,-0.016474390299494705,0.0011635583269579192,-0.04200929261308804,-0.029785300309573968,0.0005150339985929438,0.020915043699960566,0.04665258113305554,0.0014965184635960724,0.015578141908354015,-1.0175798495300605
175.78125,0.01886899710134949,-0.023065369664870012,0.0054557066161081925,0.016819526650696522,0.004514658491341942,-0.002593857827595322,0.005816740753349674,-0.012334786111988068,0.03972961497930939,-0.02717805703889277,0.0160901974240003,-0.017138334625559686,0.00934583818984585,0.06421068775477792,0.024193185423049636,0.024310694585600718
177.734375,-0.012932480910154061,-0.005915766354026619,0.01309284357507461,0.012832618713727094,0.03187148090533919,-0.010030560463623809,-0.011577818575822066,0.02138200607540424,-0.05187578520116237,-0.03371625717255334,0.00540033818275641,-0.021272564943786026,0.003960053202693489,0.007906231523283546,-0.011812828882245482,0.010988968428350168
179.6875,0.008096940127698245,-0.033741521874034015,0.039099173010892156,-0.022777149556111466,0.00614876674035367,-0.004371406601475683,0.023097126256033173,-0.029543528454948356,-0.013202905066759774,0.008307854385250201,0.029446687059895407,-0.029792230905600205,0.03720725820841055,-0.020592503594896793,0.015727997233479812,-0.02458275233142778
181.640625,0.009357801956014798,-0.02882119248888689,0.005451519679212843,-0.0066089616237758496,-0.009103910916104734,0.01788892150219549,-0.020265707570886974,0.02512682321685868,0.0017790231994538911,0.0011904462525184113,-0.021664283958696948,-0.026223438293087632,0.01895539608670281,0.02790441820158129,-0.006714522052077592,-0.02145113520574263
183.59375,0.0109070676283369,-0.0021627613189071837,0.010158135855498273,-0.013703523269439712,-0.018364730085351458,0.007854299972905692,0.018289330279783213,-0.02203009138595492,-0.8911356495865889,0.006668965643181309,0.0055701917860052534,0.03673076287747275,0.02636064764666682,0.025382631389871776,0.014111054704145223,-0.03652833625025954
185.546875,-0.013786575856106764,0.013811446912232763,0.02408209777182906,-0.012730561090612847,-0.02908749600917662,0.01340182435816254,-0.011013700886769602,0.015316075824075492,0.031167063110075294,-0.011404771118261763,-0.025800373784866003,0.028265491119631343,0.026025806876602626,0.0036215824659315003,-0.00010673122334691471,0.02568610522564591
187.5,0.025064299391700393,0.036897580486457054,0.015826883858788353,0.016560172897807684,-0.6944035982199248,0.009634215777121353,0.03428108768043932,0.021063478452824712,0.023103878405958653,0.0016424083918856604,-0.0495396405103997,-0.0034989386724501876,0.04999025948550756,0.007689025449169891,0.011644958795335258,0.0030779819453261178
189.453125,0.01924589546419586,0.003627364017092024,0.02703988183016307,-0.0026249668767891797,-0.0031192084515555486,-0.007249119095900868,-0.0016718659387360856,0.016843739814179654,0.00586883064510881,-0.610284378669896,-0.004757811914276523,0.038806279910032736,0.03500967788009659,0.004988981054315201,-0.017434972127980414,-0.02693068041996531
191.40625,0.01245855806144319,-0.03119146704527824,-0.019407670582084455,0.009512085708343066,-0.010501322754786739,0.008703866390480432,-0.018085157885975204,-0.002562454375224837,-0.005569599551707732,0.021779572243916464,0.02800682404201108,0.026972736331087592,0.010150005315354793,-0.509823392627352,-0.002823306673643979,-0.0332376106069788
193.359375,0.009883999875238369,0.03020555376642815,-0.03753848589990366,0.01177030111564995,-0.017388402161791612,0.002653092945705387,0.013478693307256016,-0.01605475272610492,-0.027144838489308078,-0.006944294008811238,-0.03151874798502857,-0.004117919558571922,-0.05875603478507189,0.02215558868854888,-0.032242170219136376,-0.02167356289293497
195.3125,-0.008024948609993839,0.009578158036527683,0.011421416593762976,0.02146010759696456,0.04290425722656839,-0.025019577519281744,-0.015246958392062311,0.016569432755586627,0.014766477354934773,-0.0030829866517513575,0.011837633280844112,0.02327479468703795,0.010363987382482166,-0.037287465986637104,0.01694517535904098,-0.019132998562753654
197.265625,0.0030914336863858767,0.01863954119710895,0.0021398565645770035,-0.011924410393049974,-0.023703096735317546,0.014453663655527043,-0.012762423315676506,0.02692774378795973,-0.007997360395027442,0.027348812344030617,-0.0023576382908834766,-0.006934246764817862,0.017211533342729048,-0.15853200845834878,0.02259554009187422,-0.023340148379421992
199.21875,0.03847016652734452,-0.0038466796685181523,-0.011141462625899299,-0.011675548454816234,0.028179943389231247,0.029424175660527283,-0.004288961318711796,-0.032369528066972915,-0.0021734415792621785,0.021486953867696817,0.03982694257084019,-0.0042106932009955056,-0.02411249289527205,0.032125550724552907,0.037053645286684395,0.01147137447458432
201.171875,0.012484009866086972,-0.014255120509909494,-0.0011280133974451122,0.03993086924406281,-0.0019668429155726727,-0.022517030993409848,-0.020483425867924836,0.004610837404367771,-0.02855227390183495,0.016899983147158563,-0.008676607775911586,-0.016306904068194742,0.026650511176947212,-0.00464044982948893,0.02601880360297672,0.03041538979988358
203.125,-0.012468816984301466,-0.02995702251851064,-0.0034229766781803147,0.016442032557494088,-0.020316944520733068,-0.01826062962600526,-0.036543603107822994,0.04019103363166366,0.017841639436272354,-0.010792587950554312,0.013072127812346512,-0.0059381975395526015,0.010528815636562215,0.0038746283931940626,-0.021594454264440316,-0.00830871449070197
205.078125,-0.010726495160887495,0.03042890152137424,0.3233563278073645,0.01409767254633162,-0.008574113000132905,0.024673820386935053,0.0037001189403456885,-0.054404292546243516,-0.014880886341472504,0.0008072942396174562,0.003991581121427113,0.024429314237748065,-0.031064173238364905,0.0023687377497264555,0.011222558701469846,0.004342584266331296
207.03125,0.012664327146388207,-0.008562565995224584,-0.010577502155284819,0.0009695224679011716,0.006270694165716267,-0.006821100182831328,-0.021765461703846502,-9.129591451263611e-05,0.004746856161334286,-0.036449191754309655,0.01932647484444479,-0.0390059572218284,-0.042170950095033154,-0.03737909390137211,-0.0017037106775255506,-0.030196676057430212
208.984375,-0.0030928574733597907,0.038262286516049286,-0.001232462952932569,-0.026152324736620366,0.00956680929397515,-0.012861327023489742,0.016888952069504245,0.04373215710874823,0.010961014409988586,0.012634256391087872,0.02458602584947451,0.0266280771785529,-0.0006453785852758407,0.5649802874362282,-0.0086693710418063,0.024394698563559972
210.9375,0.012917889050906241,0.017423853518100357,-0.04484227635843238,-0.0091547620406358,0.012542890910926679,-0.0016703631581316582,0.008893634338241939,-0.027813937583295496,0.04847920262313555,-0.00024592997526559304,0.001835471835850246,-0.03582006892785432,-0.00502011320287676,-0.002237174817283612,-0.038573501247832674,0.00228380008117986
212.890625,0.022520320338535866,0.011770535587583054,-0.007147370783415601,-0.0020612931809805596,-0.009444983314872103,-0.009937616903898919,-0.00034801669412337204,0.0006999889067070157,0.007330133915186835,0.02821071720723248,0.0035623842810159445,0.014095087146166767,-0.01658685654129583,-0.011495947412716203,-0.02503992580628608,-0.009067598281405215
214.84375,0.019063055468533603,0.013498732466624258,-0.014179374396974188,0.8138801072376105,0.0004810693028796824,0.0029860996633278808,0.029343429773308206,-0.013490655182917227,0.004339898420777395,-0.016842453194084468,-0.01182222095375108,0.0012144797092780695,0.023296751356816883,0.053763259708760114,-0.007631471652160945,0.010582698069526629
216.796875,-0.025670142983324037,-0.01680242745606165,-0.005591193794744727,0.000670383153873191,0.0007177031437810982,-0.0005076596260267933,-0.003951045747185062,0.019557803523251028,-0.015793109259973348,0.008369890986404319,0.016167744684842108,-0.03987224919673941,0.011864091893751283,0.020880730507068554,-0.06604051348986392,-0.02526208791004019
218.75,-0.007169963914722808,-0.009032154453991645,0.029080118379117992,0.021462927727698384,0.007995951281857238,-0.010219154993915163,-0.017079655861360246,0.010595134785568077,0.005216128499187883,8.901522566921045e-05,0.012411473493645991,0.004528383932080435,-0.0082995698620805,-0.016704390960427452,0.0010022817285101067,-0.025618541726693894
220.703125,-0.0008430704705150154,0.03284163488549384,0.041443492128956344,-0.010933365655633494,-0.017980381685738536,-0.04258346418751358,-0.008457929996400392,0.013256912299757423,0.007241039560838863,-0.004523711971283931,0.008130376216767005,-0.035191373910489,-0.005302960694425678,-0.007031433391218968,0.054324543104203434,0.019218233948312492
222.65625,0.01449434339975547,-0.032196391082920814,0.0012856597662163295,-0.03719216912870969,-0.01384933447550089,0.004748916166228407,-0.026272532066044595,0.042500794110308535,0.05968382032472564,0.03172817362553526,-0.03544282326725766,-0.006822864401058088,0.022035841731437366,0.021334367916679135,0.008847334039114392,-0.012035149240457064
224.609375,-0.017765473976867344,0.022972438407693054,0.007023603286343556,-0.037781400772141885,-0.014080683854651646,-0.007450309684589013,0.01573003502274697,-0.002985355705093733,-0.027973477904193165,-0.012173325388038177,0.028230466333148782,-0.029430138646607845,-0.03211178628792999,-0.03892374665861386,0.01895507158214505,0.024047845483665193
226.5625,-0.017734544676591784,0.012363591363255575,0.019006334252452416,-0.010043185729316154,0.009323364973429407,0.01841303365518252,0.008617243564601432,-0.009219085131634842,-0.024628479709256336,0.013214055482658074,-0.003780932046804933,-0.013699689973023146,-0.01986702153040762,-0.014051193534151253,-0.012106808333794267,0.016312964118069276
228.515625,0.0007401202623555608,0.016812252700437805,-0.01924790725529088,-0.03949256508127809,-0.02530360901206055,-0.013606671289401646,0.0003298370013838412,-0.017137464770698958,0.01119519929634204,0.025028398393241835,0.015806435252424242,-0.013920101837999634,0.005519649059279623,-0.016749600521327658,-0.01423402037792268,-0.02504495745921345
230.46875,-0.018383582797022176,0.021068986532574368,-0.0257950418918261,-0.017531860004731562,6.12246787226977e-05,-0.01745443288542034,-0.004085594619478358,0.010446990824024664,-0.043373184966495705,-0.008375823256042582,0.07116166086524973,-0.03150182217110441,-0.040898590556564744,-0.010554553700902778,-0.0017669598828598402,-0.015763854868578606
232.421875,-0.01970788598641891,0.00953454162653546,0.018663577611271475,0.01857822999435376,-0.009372462693508532,0.006684182574562844,0.00889725923945621,-0.04901826810897718,0.023644562969128657,0.025078075029663006,-0.01742120558108529,-0.00035595512998599915,-0.0018651966540131298,-0.01077556908846919,-0.02294820295369153,0.01658510276808372
234.375,0.8380758727911483,0.002027947556439875,0.016701177933760292,-0.0175422501115359,-0.0016566292270825734,0.03234072765616555,-0.018577704159084437,-0.039613676667873826,-0.03055715982344783,0.021400351887524836,-0.028329937051044595,-0.0004888836305875027,-0.013079351867395679,0.01851771160427063,-0.020477168716706958,0.015361299819903654
236.328125,0.01421012664729982,0.021699865739620846,0.011146328775524586,0.018284963438561674,-0.013682056831742466,0.00606827498842346,-0.012396126160582393,0.017096997077984222,0.008031645164035707,0.010264077199735731,-0.03770233760188206,0.0015084999523418954,-0.015557248629700161,0.008089772460839018,0.00078245069371954,-0.025868023240545445
238.28125,0.01972756954064379,0.017277441616329107,0.0030178025425291965,0.005061635754663866,0.0017157381670693523,-0.0030950118527042682,0.02343316896865728,0.010359303001010208,-0.028469975347180657,0.038046620048896036,-0.0005782263758467165,-0.0022280514941494865,0.025701338446003433,0.006966907744040743,-0.007769998441700266,0.011365906234084016
240.234375,-0.014993320415385536,0.03269654618364212,0.014579339673892543,-0.019545856937060856,-0.007519354538665692,-0.0045108387837351415,0.0024835114242844816,0.017310003024364935,-0.0029673412843564573,-0.003522267673593312,0.003820544651152333,0.02125609999462486,-0.006853508271006137,-0.001767243614729168,-0.008589242336426972,0.023301864657960462
242.1875,-0.025645491689800612,0.035856776385215734,-0.010416401284048723,-0.05801623761641341,0.006591185375458043,-0.005056774149280892,0.029468080915952606,-0.0009844689103152909,0.4592320135674389,-0.029254300467147703,0.027019694033982154,0.006359876323095425,0.023444522010463386,0.0006091657506754616,0.022664743715422028,-0.012069026461528291
244.140625,0.051528564459378014,0.0264262950130811,0.012082702749363053,0.0031644112390985524,0.009073775170677166,-0.026585421629367088,-0.02349968868478972,0.0008609596723232162,0.024726895457475733,0.0019091638400964676,0.0048984434232329475,0.007603054195234608,0.013932242704089468,0.0249914110061556,0.01981883650274284,0.001303275861457162
246.09375,0.010514171278491644,-0.015499969442549895,-0.001522759846177528,0.013586614791271797,-0.031037269716220634,-0.0037447671343015247,-0.0046151252519808315,0.025712004808942278,-0.012795006755398413,-0.004845691764928075,0.01104240961610932,-0.015142066391727856,0.20493351933521384,-0.008871425277942584,0.006291388275815839,0.0015210107633458992
248.046875,0.030318209374551083,0.026348491724447372,0.1418412074320668,-0.013199543247379843,0.0012125111028325124,0.024775485498449483,0.02338845081029228,-0.0014042594602057252,0.022051791602469707,0.0003052126893770392,0.013846021197313478,0.11470783289581027,-0.012791130067355662,-0.020008613088976248,0.004608164152113968,0.02585101969324979
250.0,0.0035644486528378745,-0.010483035334932824,-0.01033273279764371,0.009751304108009978,0.004869026067894372,-0.016963526735243213,0.005310291507635194,0.04089014016818458,0.0025515275511277997,0.028574144506321057,-0.005239571882761061,0.0035664970188071356,-0.002281162783538938,0.005382324717999821,0.0009259950575870824,0.010140334006608463
251.953125,-0.029651791266181213,0.0023563300371049235,-0.02690681677547741,0.02688484914499224,-0.010992734307579856,0.0218993054845025,-0.01803660093202414,-0.005501200638551663,-0.011640124177890118,0.013054462010845093,0.009356136735165435,0.02517714107894134,0.011998670191172138,-0.009608753093900408,-0.03985968306367403,-0.010742501911749087
253.90625,-0.009115766140476713,0.01606056171244447,-0.0014838731439002892,-0.006825991747332456,0.011442869101849535,-0.23616342871715293,0.01232080260507501,0.023330345632056604,0.019229123566552823,-0.011422926537380742,-0.0022184565977661653,0.013342345887898762,-0.033720819142531465,-0.014031225423934354,-0.002327692848312079,0.008595609957618449
255.859375,0.027469625478736485,-0.0388455125937783,0.02754849306843364,0.0035152224729790116,0.009460038687311637,-0.0563895400537708,0.03389767930014414,-0.013239869250374603,-0.029248331971002624,-0.024473922091307224,0.015739976148478187,0.011422020757469063,0.011585193452237198,0.031126236587092362,0.01079368141903957,-0.03826968906156034
257.8125,-0.02887732724930777,-0.014884460491600098,-0.013460048812082195,-0.008382236378338627,-0.03101911385268947,-0.012629601549926631,0.006046711817720678,0.00014041234155549645,-0.0514094410528182,-0.02045511830622042,-0.0033348180129863514,0.012888330463476119,0.009912284412792903,0.008123292020998906,-0.4657235250237396,-0.007145232773018615
259.765625,-0.011339517780234027,-0.004579353123612264,-0.003809974487088962,-0.0076614375775991665,-0.0042759721194821285,0.012350800389292775,-0.020114941476861756,0.013687689525907485,-0.01723855620549391,-0.006023011474256877,0.017443517414911982,-0.0006922177180344694,0.009148589544763188,-0.016281889103064207,0.02942486747900791,-0.015063610991117015
261.71875,0.02034417415290961,0.00676709915138769,-0.018831728645299174,0.018682290322159636,0.011328978528163114,0.0004994179135700417,0.0005048773909540355,-0.6814871509941314,0.008807152265751319,-0.0011668683595928411,-0.011945790634938674,-0.007495878278727353,-0.015160056690988842,-0.022476976884251036,0.02303995027149579,-0.002640214541785326
263.671875,-0.026447371421451968,0.010787537738075994,0.03257495843477794,0.03165135356551184,-0.021517023334745873,-0.006755386738249968,0.0006312756282625309,-0.004692103054930581,0.02181652181740523,-0.007828155791942048,0.004557655746348771,-0.014240939810250042,-0.016354287062943486,-0.0004548235652607851,-0.0020867472281432607,0.015996823760996676
265.625,0.012493911932548387,0.03380072711237643,0.007086281854713651,-0.01741178897176154,0.011499008249495466,-0.024912389163234187,0.012427247309839098,-0.012510609250615137,-0.016009384642874155,0.013689459089817111,0.011544268524494136,0.009701054530779211,0.041085038036907384,0.025661879506960812,-0.01204519257252113,0.030650837339614045
267.578125,0.003663322771044532,0.03143388737592102,0.0332659563364272,0.002170733811971635,-0.009260398955470104,0.022407846511551716,-0.047063234790314906,-0.012997444737621568,0.0021211663881655117,-0.004206717971092954,-0.0027659901820153545,-0.030695630104363183,-0.00312883246518892,-0.024820914027705553,0.00570019794267546,-0.0031220818017070684
269.53125,0.030184526789520036,0.002961583625982371,0.02700790562143721,-0.01586967809302818,0.03133002211819572,-0.03034277861084968,0.0050213392573892094,0.007242741039252043,0.03154157329789158,0.010131201914886694,-0.007908994424603875,-0.007815182844890375,0.006272585822223828,0.01126058572264072,-0.03084121963860137,-0.0068092888042254815
271.484375,-0.012189932849715843,0.012933124174381564,-0.019734637831286896,0.032490084466683035,0.029183967282482546,-0.012044171324441235,0.014510524269317465,0.041143986267612565,0.008412259625344417,-0.0010560874454643343,0.0038277079145305503,0.015320462884282236,0.01497941182257583,0.018256772865271165,0.0027607967573884725,-0.005852005645812398
273.4375,-0.007987305230145108,-0.01890638007255295,-0.01238302982619699,0.005288104927110453,0.00013878603783609833,0.015842305519309298,-0.024775543589116884,-0.024375431460233476,0.004493669972067429,-0.01214959293760523,-0.008867237668322196,-8.524071275957665e-06,-0.005178049803507639,0.00011585716853748436,-0.004347587749965172,0.0031522528376478893
275.390625,0.0017838561300510527,-1.0228887691564106,0.023499077164119763,-0.02675988908676112,0.0014431896875619985,0.0169634795648311,0.0059493953166421245,0.0004151279975108211,0.006172592825651876,0.001944176013302581,0.012681627456878675,0.006853083459302606,-0.0140217267448288,0.0004229731204480114,0.010011757534032044,-0.0041052223839781405
277.34375,-0.008030705647143598,-0.00018685099944572745,-0.004376588725678288,0.004060389828617108,0.015677810913011767,0.01929277312976661,-0.02518660089875142,-0.012770681802278526,-0.004733833740965395,0.018176175415366414,-0.012176008189474544,-0.025989646428848896,0.006530969893771166,-0.018547006659705278,-1.0011326865672425,-0.0012011824376393777
279.296875,-0.008855237941993872,-0.0068393369180124106,-0.012354952541536766,-0.031419167279981244,0.015473849829893827,0.0037644737408623853,-0.009831500772264934,-0.007044405098241014,-0.02263105360931033,0.01620273892471109,0.030246183445932863,0.012525639244187755,-0.026091942068346287,0.00039790671558803995,-0.02218686061557184,-0.024219273603141196
281.25,-0.03143535408216895,-0.015754899528430916,0.014122291080326541,0.006997038118235173,0.006422190264108595,0.020347897526657995,-0.034434249484380966,0.004819343750558045,-0.0013129334234126633,-0.0026927545608083987,0.025894607230360602,-0.020744350061563055,0.05648983132544297,0.01662524358633221,0.008645300327522306,0.01889847160277136
283.203125,0.017639085025741706,-0.005480350030758177,0.005490112146552593,0.03618010765493946,0.03365910337652919,-0.01010147166242861,0.020466832208223772,-0.011686267771545392,-0.008964593301734124,0.021191824562526752,-0.026104625780616626,0.02097388034697372,0.0096934809868672,-0.8470687912953824,-0.005644072870712189,0.023071545328796076
285.15625,0.020369384724270637,0.0036698478543195747,0.0205392849783961,-0.003946701489898754,0.020980616350619624,-0.006765236004887688,-0.05200011367020885,0.004409620980364458,-0.00232220425045827,-0.0007768992495478927,0.013649193670775083,0.015354089552704576,0.0088684270124958,-0.01430655142165517,0.013626831543603564,-0.06169404315248043
287.109375,0.005626857533825359,0.014494986417571683,0.012160927303426178,0.02042769579614851,-0.013236845378532787,-0.03469427802641576,0.04485044565816337,-0.00705955134674034,0.02124118616030557,-0.0051228380283347705,0.006464873421313056,0.006875384736059538,-0.0001460385837989363,0.028764976500287365,0.046612792362489046,0.014852715805167229
289.0625,-0.006428082384324482,-0.018489338709814916,-0.012611695099187154,0.0013133126920318412,0.013521252256912253,-0.03278387915240448,-0.01330310044754767,0.009976625685223459,-0.0022039951778185032,-0.038156028334854014,0.01614977390495093,0.023125715576531564,-0.002791475792932168,0.021473605448379892,0.0070794297770899565,-0.004834054544651038
291.015625,0.005274014910626037,0.0043367312477659795,0.007988019127181124,0.018074345579087256,-0.011503330617755466,0.012238268233740152,-0.007355910951904836,0.030809054806276822,-0.02404728074456806,-0.007915776329959285,-0.0006134224046378076,-0.01564990400535438,0.010392240348045203,-0.03142007255180832,-0.01915800471674925,0.022496803345312337
292.96875,-0.0340769996155455,-0.008233422661095249,0.015064829659320985,-0.005888754229847576,-0.02149378637640073,-0.00857331281837764,-0.01019791699882171,-0.020443107217090715,0.018848278421761306,-0.04393754398480815,-0.0053208058338024555,0.005774851398625841,0.003953003736081957,0.005836535879219149,0.026310872895294803,-0.003271433116476396
294.921875,-0.027105705903016364,0.0023097403190974223,0.020203884291642386,0.00034765983978708774,0.013301210225587562,0.011080083152996164,-0.014770599005614834,-0.01588322346941309,0.01044381697130569,-0.023408101123221982,-0.000896723400455324,0.006191390871432302,0.01925072751319764,-0.012062069012177181,-0.0185677221006036,-0.33908116729700266
296.875,0.05098832780183517,-0.0023429371984934446,0.03625803022880266,0.0007223293234886186,-0.01552339213215743,0.00015100772228369554,-0.004749289155046453,-0.04912896919435932,-0.005382471574164826,-0.030285086253823198,0.022123998347986288,0.016601997049430564,0.015150537137179777,-0.014805222601856361,0.008867235470803743,-0.011087177915115341
298.828125,0.03089113010312365,0.011901055569884607,-0.014561484910345899,-0.007403304615532695,0.020240600171257155,-0.00999279937958698,-0.0015520188271575602,0.008050592726279402,-0.005216623552925034,-0.007646317797379143,-0.014749450222528446,0.004285402979780269,-0.006996440048192911,-0.007999382666749964,0.0005871013625435532,-0.01070175642381808
300.78125,0.013087067729059026,0.031177411520907247,-0.05290993426086088,0.017005498965668754,0.02644524522066702,-0.0035253643408532723,0.008936216086851308,0.024639693254494152,-0.0016771340670546822,0.016975268612458187,-0.003308073101103889,0.01438667516031549,-0.0072507236778039654,-0.01702506901507329,-0.013022542774542714,-0.00954329990829629
302.734375,-3.4087202661026945e-05,0.012280725593706401,-0.003461278879680101,-0.019262253242519428,0.008323884241394696,-0.0066917396901776316,0.00124664551564956,-0.00653053223052734,0.01445386450428597,0.04592087456968562,-0.014850128169439687,0.02291488848165795,-0.03047643012264808,0.004882275051366053,-0.02979562411307191,0.01666512808719885
304.6875,-0.042535805039080075,-0.017823463035816688,0.013483444970446262,-0.00718120854520856,0.009035658413270971,0.029060573320970312,-0.012040292720724623,0.03176335501224452,-0.02714034377787352,0.3382280825835703,2.7090358473562967e-05,-0.0033335307913610534,0.0027393583993027023,-0.01283065058489477,-0.030981142749858175,0.030641455547202493
306.640625,-0.03469351761289009,0.009223145513305933,0.0010147146260138123,-0.012502786946720723,0.020222953984529318,0.0021085864162499056,0.028976759874986806,-0.005877525356784916,-0.016462638001719616,0.02746670026031624,0.0035797823492705622,0.029730405435886766,0.011360895745981196,0.0031415019606035655,0.017973436553995137,-0.0451193052513665
308.59375,0.013306811287603078,0.001424244221789326,-0.0031710782353168306,-0.014502713020217148,0.012232100309240233,0.01689843161734812,0.0200035299863592,-0.026361648374556845,-0.009744551120491555,-0.03913146412787892,-0.008072480770414388,0.01594502752217966,-0.01726955265668181,-0.011544106259011595,-0.019487971888312496,-0.0010179517415825636
310.546875,0.0025260939331471087,0.028599859022507758,-0.0055593268492188375,-0.0008985527175170094,-0.03351525094998966,0.012014704030746613,-0.032717264483743666,-0.0045891300558133,0.002403270035645301,0.011058993918848079,0.015114442896743907,-0.022631529108574876,0.00818413805418259,-0.04239176447875519,0.016652631537661874,0.00023465984602485948
312.5,0.013892111181441862,-0.016025066590456903,0.020387536220033222,0.005632064782247846,-0.004583956057242992,0.019563581334195463,0.002383627066734926,-0.0004968769755836448,0.023342063528192934,-0.002610001704293878,-0.01968898287606698,-0.01538318957978385,0.035672998813249306,0.005829093385462578,-0.052857957455640224,-0.004683761628534345
314.453125,-0.02564480230294912,-0.014948099492087948,0.030723466717841225,0.004912931675204081,0.7730428241924485,-0.008730473969191063,0.010250325921898862,-0.022035462239468794,-0.005882490747783596,-0.014104812897204286,0.01084500637237387,0.007162117799751915,0.012083217843593196,0.0023098035179480885,0.03424455639551028,-0.01781795288644972
316.40625,-0.008041384253293924,-0.030762263631639756,-0.020621682928225128,-0.007071520948041701,-0.008719683202706564,0.017268475321151864,0.01899932031058851,0.03822481939764032,0.011088826488259729,0.8761627699622856,0.015771976740127796,-0.010517690296602796,-0.021374699102237073,0.013047195265734017,0.014366362091059683,0.03705141485207795
318.359375,-0.03483975024614466,0.010305976760358573,-0.015107505659173934,0.0072875029496643805,0.023951023152680412,0.0005078628625670986,-0.01777378070271639,-0.010709405397533771,-0.01268475379705792,-0.013612716258165531,-0.005740409900344837,0.003416449550910474,-0.03518584695064646,0.010982983720680493,-0.014392783312121401,0.9055324840769913
320.3125,0.03598908090971092,0.003259768608413361,0.00034432944078930836,-0.01428097681690283,-0.006589755662651079,0.008673601626939977,-0.01690809287139056,-0.00848743867570746,-0.004996254555604079,0.012277783035723756,-0.022094008635932742,0.004762114780555517,-0.0011781724992277964,-0.011009005661197285,-0.001246530766372136,-0.007493520559029812
322.265625,-0.009431976160778876,-0.030769357629216603,0.02800743653146157,0.012824429130282889,0.026914570383500903,0.027547720124075813,0.00972847516797019,-0.02092987850615109,0.005689683613985915,-0.03142224427294359,0.006783946905833023,-0.015392278860727278,-0.002560527903650735,-0.02763480777664977,-0.008347778501008004,0.010142022293493584
324.21875,0.008490136425880377,-0.0007135551165376756,0.006009551365768474,0.017839890059568143,-0.005415213153354519,-0.02938812937316278,-0.008612083498638517,0.004218298956414532,-0.011959313046971476,0.0071513166245493875,0.020783371934748773,0.008023707583802471,-0.02043562022585492,0.020454656355551812,-0.04581835124099493,0.02758616710354624
326.171875,0.0009433910981025098,-0.04062180112095465,-0.015259861471560278,-0.012407230723879071,-0.008581160382886446,-0.00763715124838559,0.016294451178940798,-0.016429732270505173,-0.001330402935469937,0.0063550008331864465,0.007785247654371416,-0.021818634799133454,0.0009273552262512862,0.006092467277358646,-0.006572513756240798,0.008409555278710686
328.125,0.01881628037266358,-0.019855801060640593,-0.022729175721125257,0.023345683190459612,0.04828162023803292,0.004263790498693489,-0.002287678399433414,0.004716925936944528,0.011842861079532923,0.015141890287445151,-0.01391096330481238,-0.012655200258977834,0.01376121634767721,-0.014825876660033453,-0.004669933493383434,-0.021003857055646065
330.078125,0.005287207990181345,0.0009714989558119179,-0.012346402711808176,-0.010778420938659234,0.03077766225042002,0.02035324708224194,0.02787395040866053,0.00973409829025954,3.505404448535396e-05,0.02813034312317948,-0.03672530014389851,-0.02896242486085834,-0.004932520970180108,0.0008103678319367186,-0.015033370799573308,-0.00928117589772993
332.03125,-0.004960081299951297,-0.006261429332056711,-0.018854985083730832,-0.012112005115024931,-0.016555328176605048,-0.003004798467439256,0.0240415276624887,0.041392341178849656,0.013665417021299735,-0.00365000840081131,0.01901799057909761,0.018918278544509927,-4.8034447869021256e-05,0.016498043690603058,-0.008574236864590636,0.015852357011075006
333.984375,-0.00143223348403644,-0.0035927313974950807,-0.0008650072396763619,0.019409929767790424,-0.02924366862696438,-0.005003055129118973,0.014578669927313739,-0.00041707183993107264,0.01400063841390108,0.005582106149966446,0.000182399333636898,-0.01567088907842616,-0.015128820326099409,0.003609830150237117,-0.008177613303889098,-0.018162534953741618
335.9375,0.008917057197331952,0.010025744659139888,0.0031087247568776506,-0.0231262559746617,0.016962510254494564,0.001257164915589694,-0.03022831838648701,0.03192858474958353,0.008572643018987995,-0.008969135744498707,0.00558820505969147,0.011653567453396293,-0.015087506983308852,0.7908014997583156,0.023190681261445786,0.00920767838388607
337.890625,0.01720306633091445,-0.038660460056902386,-0.02986217484758787,0.03274039713183236,-0.027694917879510127,-0.0021959767047162004,0.016348178784123958,0.029619698086570785,-0.0020214997169765133,0.024111460237292884,-0.04698904129243323,0.02369592789599298,0.005505979008125764,-0.008984987181304794,-0.0006904963223945207,-0.007269743181603567
339.84375,-0.023052226818685146,0.017519640408812244,-0.008522123655034589,0.004497114676895168,-0.00838675012847979,-0.037568699408199256,-0.027747495822114804,0.05026971907720174,-0.02242925894487023,-0.0111855168324966,0.0038230409710881654,0.019294808244391778,0.010807626007161196,0.002264769672991736,0.012937654632910054,-0.01589105059658079
341.796875,-0.031125999724851288,-0.004517169447945175,0.009046305110924073,-3.0158519873250668e-05,-0.0197022040380353,-0.010741032413808893,-0.03913061888048764,0.011362117088607755,0.016917138108787106,-0.008554738032383245,-0.0462147892974011,0.028522929850177414,0.0065123290760982205,0.00817055438276592,-0.015180063766760976,0.021179384360990462
343.75,-0.034008971460815766,-0.009262668084801586,0.00967865356393944,-0.00040879369171338483,0.011150091649071046,0.0019065775911937817,-0.01680020141031599,0.02333592550639417,0.010667548478234786,-0.0009956829987649402,0.013400992716935588,0.018437710281824435,-0.0313796380324051,-0.025533731657119918,0.014892453315861793,-0.00690965507137801
345.703125,0.00047290411674786345,0.009072626367875852,-0.0014901859501734243,-0.019651901746603168,0.0009821147517467747,0.0002728399006311265,0.009001606049727898,-0.0159807718358595,-0.014722416568794772,0.282664885209967,0.01597604141625529,0.015691445294055983,0.03705384568684971,0.011361586790904056,0.005013489836623582,0.01742170022620985
347.65625,0.031053848686772034,0.005775717135738402,0.033786280930954996,0.04614278370316985,0.027433560060813794,-0.011198977987031402,0.01258885426886816,0.005882680434292459,0.009179863945230763,0.05758585094129398,-0.006256785000597188,0.015833242383753596,0.18062154964662916,0.005317174025386967,0.022390158671271247,-0.014425036026341183
349.609375,0.04219473810447696,0.0014051742351183724,0.021805568939907673,-0.026516871411537735,-0.009958243791645715,0.053771511007617616,-0.006926928814814773,0.014853992520168136,-0.0020800035255787276,-0.006340544658530929,0.01948891977848819,-0.020777554072468535,-0.01466886160717777,-0.011320359606284249,0.017469585954416587,-0.02202253789765951
351.5625,0.0016508031623929597,-0.028500850933832002,-0.01174190696205978,0.010878309658277832,0.031065572702912908,0.016135225305285036,0.013311992279379053,-0.013246888599742284,-0.036111540015250326,0.045814162476530924,-0.032284001175922054,0.05096911283191395,-0.0030432548468330633,-0.006390506688950565,0.00833692822006738,0.041373571219755684
353.515625,0.0007978271633249502,0.0008624434448550046,0.017826265950487658,0.015714754030351805,0.007084350592465352,-0.018754587248522817,-0.006070734434682721,-0.009096765149539575,0.0018123505097454899,0.009886364178064329,-0.02774916941578674,0.0020386690238537535,0.01630946911430751,-0.0034270981012412055,0.0014422230706731102,-0.01965459231690658
355.46875,-0.027811928413523535,-0.008662519431025867,-0.013787365492721106,0.004675607879946091,-0.0004562942630877616,-0.05603974371838165,0.040243837890192084,0.006329709754935436,0.03623188356007853,-0.011444009985133516,0.014508799425509334,0.01045748269943305,0.011217236215995212,0.034303844559997354,0.017611570477928266,0.0005495548133703588
357.421875,-0.007759948202820495,-0.0037881569141121232,-0.023286900714407584,-0.029328383073949846,-0.025221259225748607,0.03541652306459501,-0.024576276328220736,-0.007405989656029117,-0.00464433914926695,-0.01871576143699828,-0.010375242929954792,-0.006502636480344138,0.021162422605023896,-0.027290583451107187,0.017765786749342715,0.002588699420674198
359.375,-0.00967019555297887,0.028150122556520815,0.022982421475620973,0.016557272745618717,0.01027197072423997,0.020330567684630162,0.007744059516686035,0.018553574149665377,-0.0227900977539281,-0.01764281651320393,0.03842001005448423,-0.014114487386831407,-0.03753472302929043,0.036349681467587,-0.008359615121780618,-0.012037192280476283
361.328125,0.002702960793680003,-0.014105734499754512,0.02190192943170087,0.013341129217836844,0.014754343037894304,-0.6370447777495946,0.010400663403779818,-0.031186835960495818,-0.021763350584689097,0.017448454373713725,-0.007211410134039232,0.024427428257403017,0.019175301838140615,0.014988644291226465,-0.0005467580856223814,-0.03312194081355271
363.28125,-0.02013841749277972,0.007219736628479998,-0.0016334937287940394,0.0040080328881664734,0.017733602258335455,0.008658627655947911,-0.0072790720798967855,-0.019841301186925894,0.04480958510689772,-0.014827542334338402,0.023202291286879697,0.013589470643389149,-0.006757143845744322,-0.7447965250493079,-0.027473864743957056,0.003852529270455592
365.234375,-0.018667332883047495,-0.020492577108251645,0.016580515377066212,0.03238191151345006,-0.014795437132349194,0.03237762043271139,0.0028122313867191212,-0.0183177622600556,-0.02157826169921189,-0.009459072859966057,0.026603239682873762,0.009228468173029114,-0.009827388185301537,-0.8242173708596812,-0.019488573736822713,-0.030728485220328113
367.1875,-0.02809173672331398,-0.0171812686605178,-0.8800567482155218,0.012389908244497911,-0.003087998690314903,0.0002060517624720995,0.0034980541563105444,-0.021901458697699074,0.017906859501282173,-0.027896409802038502,-0.01786093612252631,0.016915574286191126,-0.005318630475997281,-0.009335242859409405,0.0172843918629478,0.03296702623035568
369.140625,-0.003986259979832289,0.002896808452420098,-0.003056730731790965,-0.0022313647642633718,-0.00024324248403626152,0.008511729803447653,-0.9598469002520479,-0.03656733461195877,-0.02037294347120906,-0.0012332774254144032,-0.00689069753919342,0.041611531090657794,0.005747292392729613,-0.0008385497732839754,-0.010647287231761855,-0.05700799751509556
371.09375,-0.01794219659010467,0.008653058840584149,0.032474382353735384,0.02106745123167564,0.01322791460905301,-0.001986454063163903,-0.015985817891606562,-0.02155562010027239,0.00755928354479386,-0.003812180611805888,-0.05534770551997117,-0.004176914221766124,0.005534365760112953,-0.02803694282242356,0.002977891619707902,-0.021258298254029508
373.046875,-0.009911852710197686,0.005868806890764429,-0.027431083924673427,0.018852156702717428,0.004617223936168638,0.010599972955714835,-0.0231130453234677,-0.03269314708543818,-0.010875448732577214,-0.01750202680708606,-0.0006411609090194771,0.029786540205309082,0.011130215752234244,-0.024282642045417073,0.007180827710205586,0.024700841911998492
375.0,0.024548319613246907,-0.008055105573166847,-0.9802867201103915,0.011448389037317038,-0.009446541590100471,0.02391154408018083,0.003143525552752867,0.017468339219999896,0.011081956550504386,0.013965047434616865,0.019468541771853372,0.0075925674065230745,0.011780601457148055,-0.025469484971798382,0.008726300768017874,-0.0022642113363930834
376.953125,-0.01600064503934961,-0.020146958242934776,0.024766930235351897,-0.004913314473795611,-0.030581555107336254,-0.0004403459124032943,0.00642764601890715,0.029952434883120195,-0.007395582746331893,0.014547233571276146,0.00503326549743679,0.0003418927053438808,0.0043096039991658034,-0.011680048550253112,-0.007245906789767621,-0.01933119258599918
378.90625,0.02127628552912245,-0.025004278710768546,-0.030409343107857856,0.005565682339863369,0.004516196122887476,0.008683488031510537,-0.008324305622959983,0.0021978371359010433,0.028745459272814144,0.0062224434938356445,-0.9716934865749918,-0.03052421996388126,-0.000707330613069856,0.011994608731935148,-0.019171168102534948,-0.0027610193977414895
380.859375,0.012965405962621787,0.0001974777967364155,-0.006192369993526263,0.013595869446283687,-0.9464926430145699,-0.008197652021173674,0.0007985848948750831,-0.009914690673240932,-0.023932746366592192,0.0003481063383616559,-0.002017694100548856,0.01798345992246266,-0.00255937710992727,0.019162109838362085,0.012614920769466343,-0.016527032844607385
382.8125,0.005928335217798746,0.014698208336837328,0.008993812737573586,-0.012521002914929597,-0.02803694947638846,0.03542681051680277,-0.03246966782557247,0.005245032259760381,0.0197965068783366,-0.008570502553820704,0.015058968636309508,0.01580551681101882,0.0011094430443747885,0.0058136240399118255,-0.01662881187421374,-0.011648358809962482
384.765625,0.019722739969237863,0.027498445456143418,0.000944333941510112,0.0003187115692670795,0.055513534887855105,0.00047253298463954146,0.023933503803535646,-0.0030601413994851925,0.0076735760188505935,0.0007176824340006877,-0.0056494417415706944,0.010841787101691692,0.004420247736976818,0.014837179255855398,0.0031698064011516846,0.01778112864206232
386.71875,0.010413488450265502,0.011842922116865037,-0.007475554748811933,-0.03741177949043289,-0.02537065822530593,-0.004727428757400791,-0.013364455256554506,-0.0300860108407868,-0.017265032275057247,0.024954402522222013,-0.022524309039027263,-0.030601821642918622,0.015421789267009685,-0.019388071329883644,0.016402374341644238,0.006146243093414211
388.671875,0.011610161696611289,-0.029310725203822243,-0.012062230595738726,-0.0012547292246737716,-0.014144919422648172,-0.01766505440339288,0.006766231850516228,0.00845432330119532,-0.0074795151664900925,-0.017587069502457017,0.0043362100840164675,-0.0043409008828199395,-0.005281458804902919,-0.01476599618806694,-0.023727975442840124,-0.00869444156407007
390.625,-0.009588662924331666,-0.03589448445233971,-0.011752837514315002,-0.007354484115222122,0.010037314868102984,-0.037777570219609355,0.00346472331752681,-0.0007098577049346351,0.005535848636979757,-0.01337344683590614,0.002164126264696062,0.0059422818889426285,0.012275955251248897,0.006634146384439808,0.018967583417342608,-0.033490946087494734
392.578125,-0.021883529660648483,-0.017515450128233963,-0.0026694158047340317,-0.019019534031975916,-0.006713744180320449,0.009113773146422937,0.0028234623261280227,0.010099928169289049,-0.0007376796553015387,-0.02819026648915633,-0.00973916595477038,-0.027054259813773875,0.007639479757604586,0.00946117370368191,0.019957016246624153,-0.02039601915449575
394.53125,-0.01549408722834859,0.040808268878953585,-0.3569375699630295,0.00032549826853969614,0.006414538657937841,-0.019002049193823457,0.01662180767830208,-0.02772011471422472,0.020509095506803562,-0.005205256424995124,-0.016870463906806472,-0.023373837293654158,-0.3167387037252306,0.021375448933857136,0.04898648930248803,-0.007211805512087101
396.484375,0.011322861236499669,-0.014672387989387633,-0.02354516494987426,0.007500279005435054,-0.005050473008474131,0.012815374161557614,-0.01451747324425993,-0.004074378430389624,-0.021845193202994547,-0.014311583655354832,0.0019974679516867205,-0.011104902946474341,0.0003897741907073239,0.020601339559971708,-0.017909687454036885,-0.012363255830935243
398.4375,0.013065271824824306,-0.0027749941386256633,0.024945187860221686,-0.008495321462183871,-2.6601815871599597e-05,0.012175058442908037,0.008908095266328471,-0.021126673266066622,0.04084867490196871,0.0014875794532799482,-0.013193016423944747,-0.0033587422444611844,0.013021962991504495,-0.0389465809603164,-0.007400068282448281,-0.009300241086523529
400.390625,0.02847673965613701,-0.024881266339259432,0.006487034305536159,-0.007236077410531918,-0.024781466144257868,0.06822680881753228,-0.013005684079479902,0.012545096011400567,-0.0066642828875695575,-0.00014924190798840483,-0.01797871493642587,0.04162866034840491,-0.0036378805957428544,6.262488623125027e-05,-0.014280658199176578,0.01263581058854776
402.34375,0.029693555478149062,0.007392199934695893,-0.016788776001533837,0.009206831946556249,-0.01694855222833037,-0.033156392618966204,-0.018112667521108898,-0.0018182832095948967,-0.023887592883494704,-0.0033343751940091465,0.012808948363457922,-9.505927884863014e-05,0.016728399560865775,0.012501182646765094,0.016883083591268323,-0.01439403566130335
404.296875,0.021266508789751493,-0.0006399818423331948,0.0194562100628397,-0.024917471673134437,-0.025103616417860006,-0.010871546313622995,-0.008080322606413469,0.0059860299545964725,-0.021220062466781004,0.005610785962413374,-0.00020552088728030074,-0.017422675205613573,-0.0018639969634133328,0.01283765940735438,-0.012596485727612978,-0.0022280072782884693
406.25,0.028309813203450863,0.025365642640221748,-0.01270858811713591,-0.007404223757764671,-0.02999344861065155,-0.0019529395996400406,0.018794296540604733,-0.011640383422464902,0.03332110696805574,0.010786734662742941,0.02736846009975637,-0.031161475808002135,0.007902399699242021,0.011521597329679105,0.009735525780324146,-0.013698719359682893
408.203125,0.000650853657022161,0.4842004670097679,0.009849933935739456,0.01313582942750684,0.48364177576701584,0.03822624937729651,-0.0033520334517567973,-0.011955378387587829,0.0048248478106495615,0.00029837288899839067,0.48883601991653,0.00894813707220146,-0.025424073052074423,-0.015439231098695546,-0.007894876768196038,0.010512019252064906
410.15625,0.6197054266267278,-0.016309738251949667,-0.04601392378237398,-0.01268815248147856,0.010978426911536075,-0.019206526012556405,-0.010293056380222624,1.3073708873876172e-05,0.006970077328897132,0.01271237388428221,-0.01424723171044159,0.030255026086611823,-0.02986175293006963,0.03697220850029497,-0.033081134010276486,0.01684329508218887
412.109375,0.020803061092950447,-0.001077879434442935,0.04763019807418853,0.007697236494840993,0.014409295506969493,-0.006331995705058701,-0.01514706768165976,-0.03639188428393859,0.014760910154172245,0.031051459328899435,0.022276664123402085,0.005687645194528265,0.0061254131602346586,0.0018739520136460892,0.025525218553453768,0.010211516786812442
414.0625,0.015067408058497631,0.0020334070385155494,-0.05437568879687715,0.002288358791494907,0.01169300633410689,0.0034474313308254668,0.010912975121243632,-0.0023062571888319942,0.00954898946222434,0.0033856033984540406,-0.006640403613624635,-0.004041183789217127,-0.003504832983058253,0.003187234063218324,-0.00436214518971408,0.03433751088514183
416.015625,-0.00468036608281707,0.01712923244987759,0.0004990264984974564,0.047788765114686584,-0.0035327504170927044,-0.004574914197330317,-0.0012056110003550063,-0.0014579700607290807,0.032437654410250344,-0.011328226417419412,-0.01671675485904794,0.004252929034483517,0.020496586415865856,-0.014015091082907253,-0.011819422696509804,0.004171882258568665
417.96875,0.009313486120946714,0.017964024021088956,-0.01352363036094652,-0.0040980599553041425,-0.003364988964090579,-0.02136361749510912,-0.006922843228494079,0.014329550206771907,0.05631007188692728,-0.007060431278017526,0.01666244342194753,0.04066169044550628,-0.012085856514222127,-0.00688525142266067,0.003424392016227944,0.017468370351522305
419.921875,-0.018579995317457135,-0.008757453022260372,-0.007820560061438487,0.013773935559041963,0.008793526753951359,0.016520394525840604,-0.01189096744177655,0.021955884658825257,0.010986883764678013,-0.011584068761474357,-0.014128708117453372,-0.007721183076189214,-0.017712137873804136,-0.002346978438367596,0.010752007682489706,0.004924689700867537
421.875,-0.004144502732712548,-0.008895774519729635,0.01656853317799467,0.016016007705319545,-0.04187634909847539,-0.007618500170376978,0.03543728680156906,-0.009287861669898015,-0.012510974356641034,-0.0099881684331925,0.012611214223222962,-0.026586263552771317,-0.0033297141128050345,0.018985867223762026,0.009716902935749333,-0.028141528633811943
423.828125,-0.010243892059466053,-0.019382301241149057,0.0043120323942545625,-0.010921563055342276,0.018508527606192936,0.0109455732513867,-0.02591197323321893,0.005270344438280929,-0.0365406420762414,-0.005875977755186048,-0.02109715252029385,0.00037570823258321033,0.016267669910512945,-0.008218715244651677,-0.02259489864619582,-0.009941981842512647
425.78125,0.019557186172186224,-0.017176680617060923,0.02362616055832654,-0.013609349356078507,0.030360504428895527,-0.0394544258240916,0.023878734029086936,-0.01434063759067117,-0.010338929891565067,0.00592018583600828,-0.012248628560419575,-0.01575482053733571,0.0024680357404755137,0.029629786706506667,0.010285656244542031,0.013047930939801108
427.734375,0.03677851503956147,-0.0075843957357443065,-0.009223846645232533,0.017449659050250407,0.012826329929647018,0.018397714043357237,0.0027102007314584097,0.02636243414320229,-0.005094021945668876,0.007491214509446885,0.0037137025280970554,0.03673508284864104,0.0017636767258347751,0.04375715072451774,0.00977446980809236,-0.03233590016004982
429.6875,-0.04699864273657568,-0.012560942666984216,0.010996162705803194,0.054484588973307865,0.9624570255111131,0.015678312232262327,0.010246091875613112,0.0029161285220987653,0.0002881051720252431,-0.0051018357235565305,0.014545489080143506,0.024749258079128974,0.014501560411128933,-0.004157386075494678,0.0006521067101380672,-0.053658221567922215
431.640625,-0.026602570013435068,-0.022962975996394266,-0.005665322727366588,0.006237958240387906,0.027622961494392438,0.02408514665760935,0.011043441767361405,-0.027093556219429975,-0.04398806639366747,0.004907133085243953,0.024402657058508536,-0.01962719691802797,0.012811125277921654,0.015262776000736441,-0.007232333186202061,-0.009947073531462007
433.59375,0.017327745430509845,0.005796525972593078,0.011400147570171864,-0.01692080933599052,-0.010464386421337271,0.01221291848406946,-0.006123607223500689,-0.02352386921890596,-0.0007973854212723863,-0.016531088782122887,-0.009071019676692198,-0.0050608283815346475,0.009011528275358569,0.012437687004389322,-0.003777260034185425,-0.006164075999322473
435.546875,0.05235159907523187,0.006610945051746304,0.010740455807116432,-0.0073903003656244715,0.04170614973724862,-0.012666915953460936,-0.01700680306028784,0.00955495825871457,-0.028139343307439297,-0.013361802138188229,0.014460623016557829,0.00534049838753106,0.01287217743490507,-0.04607245680632863,0.005197227956168019,0.00784747048096896
437.5,-0.02876581602968307,-0.012351220647150472,0.005742007667257255,-0.009206081903960215,-0.003527851548239993,-0.016695323455736183,0.03976610363663488,0.004489553686697118,-0.0063652864886688185,0.0029423353488832165,0.023719306897896142,0.012008009465257215,-0.009733478983290468,-0.004639373548555523,0.025061718944146796,-0.016027772145999784
439.453125,-0.04407736174694937,-0.013626547630492756,0.5730015074451028,0.02519502541091319,-0.00825872217565441,0.004420191686686759,-0.029314586158698554,-0.007649819452782611,-0.0130258832308607,0.00694494375031692,-0.00535896219236491,0.008540521369096565,0.036995103588070205,0.014531635706573816,-0.005567953281250058,0.023787900650610413
441.40625,0.02275584385661837,-0.007236017476175215,-0.0020421148949347997,0.028463695235484948,0.003962335526229444,-0.00828158518212942,-0.0017812246159172912,0.03639501324062504,-0.023591884388692252,0.007402262600475677,-0.035305445442305794,0.022155730677432636,-0.005372175913741438,-0.00909330401865645,-0.03022864442710826,-0.03279904985867689
443.359375,0.00477196013761732,-0.02000458081433312,0.031108168726521886,-0.03544923320307041,-0.045678835519540426,-0.005187708293248713,0.021167187093815706,-0.007855616118679725,0.02648090548960253,0.010728398398730275,-0.00372590446456586,-0.02343798087287453,-0.007045187310012041,0.0184158794299241,0.0521795335406908,0.014548674329000534
445.3125,-0.008666977369980835,-0.017960889707428512,0.0075208178351624105,-0.02094007060734598,0.003764281578674858,-0.02132272157941506,-0.008751364364592286,0.011182267708775064,0.03516987304694104,-0.040363377453900284,-0.003454255070178158,-0.015004083272313687,0.005987353219937485,0.009342741369321915,0.0013011046994775405,-0.026701755316116193
447.265625,0.010487885560173105,0.018447873627624515,-0.025489987887289855,0.02535221449202124,-0.0032616806921399017,-0.03989403406995427,-0.008995392509702457,-0.021394835909751112,0.0006984099677394905,0.026931341086148135,-0.031227553820861145,-0.009021545416461267,0.027349402977065954,0.0030392724621777483,-0.017710124992656683,-0.015534702440927996
449.21875,-0.0025858163319137806,0.0017091170374877254,-0.002789587872824394,0.005763379382115855,0.009953846826122723,0.017693631795284194,-0.013746542761470264,0.01899548499138039,0.005112735860307316,-0.008801261150310914,0.009819360545799417,-0.02683028533637205,0.017899097167799256,0.01766542547793045,0.004316920990132332,-0.03936247042216005
451.171875,-0.05900930563730447,-0.01372259789487187,0.0350468952317122,0.015550569222951633,0.00817269572742857,-0.004583026265616254,-0.02638410061199088,-0.002019800190124157,0.0024046681655381665,-0.013663236518285,-0.05342349294529073,0.013579118917273455,-0.018550408661676107,-0.014878851783512404,-0.02387706766821294,-0.035255616528858995
453.125,0.004611244126414321,-0.005577422275199253,0.00561618268517456,-0.21694330476590756,-0.01930207994046207,0.023414068852700247,-0.029429533873803107,-0.01950252646231026,-0.014383677693921187,0.023974591144093983,0.0031568829186612636,-0.01969365107671318,0.02571544700904281,-0.013572822115302459,-0.029719152141392677,-0.03105045015158469
455.078125,-0.019697774771950578,0.0078061357067288565,0.003405502412451131,-0.002006778349936759,0.014630502094528763,-0.010443864291688839,-0.04372332403532595,-0.010141557356091195,0.025879062652045412,-0.029636711456374844,-0.023299483792643953,0.035521694519406975,0.0018139226284311467,-0.013311299884861644,0.005968683115175007,-0.016213491484014214
457.03125,0.01624321411655979,0.035384973872887186,0.025156905855138256,-0.024233960548638692,0.008873426538189882,-0.0025176040189022557,-0.010489746444416938,-0.04123102305653404,0.0056444182019915815,0.017117508767778115,-0.0038087150671148413,0.01782878777373336,0.012404068435873404,0.01623668656135571,-0.034168024116792164,-0.0010634236483986089
458.984375,0.002393406293171731,0.029338262918839234,0.006934918553923945,0.03865051563418305,-0.02158536219691825,-0.02200427459113572,0.006632216230640662,-0.001625131216707186,0.001893143657156845,-0.015723782623304143,-0.0026465678145402034,0.002314184169736702,0.03262107809068776,-0.0021175454590698474,-0.046377485857535816,0.02056184403485897
460.9375,-0.017825329434003397,0.02493943149650069,-0.0013864261965929863,0.017488859888688046,-0.03685982893922727,0.00014565554624255915,-0.0016610542966423187,-0.0010772838416605508,-0.02633698057327172,0.02446166122706647,0.017290392443617842,0.011831416335206757,-0.011828410247088415,-0.013151350229409907,-0.006633991052824389,0.039691472003164446
462.890625,-0.009562495513402568,0.011179091563872803,-0.007736838891688686,-0.01045992233685558,0.02984828173268818,-0.04213915479778655,0.019198609691983802,0.019741348900916167,0.0017097189517184775,-0.019482687315706446,0.009804024140508013,0.003934692330150465,0.0038552822569453845,0.0012685251856198374,-0.003946867374228851,-0.0056762573669751236
464.84375,-0.004913364662967253,-0.005584834393880967,-0.003483324050687071,-0.018828727309868766,0.04575752703500541,-0.01914560630332753,-0.012173244525200931,0.02279355595004437,-0.027173734487967238,-0.023007506485088248,-0.02253566369282435,-0.0030083074692900404,0.02156410294371537,0.0301102964882555,-0.0466920540906598,0.00016740598076537988
466.796875,0.0013577720173860136,0.010833568394614277,0.012343973406572815,0.017869811906048402,-0.012079806492009562,0.0039382244352142185,0.014173331519902646,-0.8822324398234521,-0.0012854931210724357,0.0068455558095712,0.016245156289441086,0.02520801638432972,-0.011345319414239965,-0.0021980544035972343,0.04226644989793275,0.029322768321144103
468.75,-0.00975662796552311,-0.030467900609418945,-0.022927340251454577,-0.007111424208418121,-0.02327117888142491,-0.020111198885908448,-0.008001098926675655,-0.020904340129690363,-0.0051125197052797325,0.03302435653745261,0.0024748508334088777,0.04859723970338079,-0.0252380322253965,-0.02030427352256558,0.03835028024327918,-0.02028837637169626
470.703125,0.002257446862928578,-0.001061902149412334,0.01307670231641986,0.012500694808984261,-0.014976580862911076,-0.018583333024281685,-0.0170688938136416,0.01769857865965573,-0.015549687960781421,-0.0028730603372258785,0.0026675435495338595,-0.01876969760676792,-0.021210788953772108,0.008496274867728916,-0.019912093384933743,-0.02951045145960487
472.65625,0.031928693483817015,0.0006472389457525087,-0.010424858455449616,0.00850255209016832,0.03379826190580453,0.00528267127647755,0.017654385223574317,0.013135104014257343,0.01605997425347086,0.0063699301946442575,-0.00015022804455713982,0.020456866821072218,0.0140229376335961,0.017518802111704233,0.04907391054564452,0.014356280785105122
474.609375,-0.012520006213694685,-0.0021228666653147293,-1.0063533718257047,0.03650186211483774,-0.03563068565791934,-0.023822074750892437,0.006054418275283743,-0.001176570289416025,-1.0019657744951211,0.009322186243595779,0.02545653173835853,-0.03873586964101949,-0.0013912249485769214,-0.0006268262538878807,-0.01396247962507757,0.009199695915741048
476.5625,0.007514281782776446,-0.0055881628962780195,0.00867134141825412,0.002338066906727044,0.02478669941985741,0.005391278606727904,-0.046983922247584506,-0.0011328393894170564,-0.9857825111169599,-0.011737008206768878,0.010055056691172983,0.00680544526746126,0.005531973808795905,-0.016241698665804466,-0.01994026223795828,-0.047496277508780875
478.515625,0.008380620807729014,-0.015418568850825822,0.007725899393414861,0.0008532054616415873,0.010338584015474396,0.02013523963185351,0.04183440268491446,0.005891744890250772,-0.029963429916960008,0.01472357252681576,0.017155569936343484,0.021225397653069175,0.0019656185664880515,0.012495790342512764,-0.0036878110091624282,-0.0013226072822137326
480.46875,0.016913790555614955,-0.0015202781682861339,-0.005457760868488179,0.030256589735751006,0.007631375355188575,0.041631636852906946,-0.014701136301485092,-0.019123762697227837,-0.029047624691664237,-0.013223877892449436,0.02631685008020234,-0.008435501699358814,-0.00702274818386419,0.014338240172031709,-0.009583208517153882,0.03014490790517423
482.421875,-0.004725754802912232,-0.013178761631712646,0.003793976772310303,-0.05275760800309235,0.010429241882619442,-0.03174781964001533,0.00044908811650376626,-0.043359670098736265,0.0034989809731507536,-0.008484782030966814,-0.014039523624107899,0.009246832830555635,0.03763982300812948,-0.018240722760164824,-0.030173465205647267,0.022175554025487078
484.375,-0.010067091857190052,0.02451912152186824,-0.0258368785729424,0.003662455973386212,-0.021367114792230375,0.005749081972003887,-0.015328987360931325,0.0011888686582369355,-0.027378837199699916,-0.02686469063210131,-0.8348501319293277,0.0044702151897179345,-0.013139463772884193,0.03946244829491396,-0.00018981572423296898,0.005996015140387643
486.328125,-0.02354647708757411,-0.014560528227701914,-0.032173379359235525,-0.7541189810835499,-0.022556104297514156,-0.003817182556811612,-0.01891543126021929,0.018248703444907928,0.0040487236687972075,-0.028977831238436016,-0.025691096741587302,-0.021853744864822767,-0.01828226074071748,-0.012890005201140793,0.01581874004963909,-0.03405271335652625
488.28125,-0.013466517799446465,-0.006802630514112205,0.020860224674877692,-0.006377439221782239,-0.04762724248617066,-0.001018409484672005,0.017316662042481484,-0.01463950449017874,-0.019668966768147438,0.01463642375212602,0.02559540493753564,-0.018371399471294177,-0.000368757136617846,-0.054411711468829206,-0.015351456897226324,0.04020373200321517
490.234375,-0.0014100072773888062,-0.013545602886327748,-0.01551576086256687,-0.00022693352703419373,0.0021356279487947005,0.006068726155178571,0.001645324364206942,0.011330928576465631,-0.011693327452394138,0.047423606209435025,-0.0012717204034340063,0.019000068593868574,0.015891921467779017,-0.0004569691149582619,-0.0289968977622836,-0.01019818382778742
492.1875,0.008259343879450529,-0.001400045714716894,0.005125085259279913,0.004306920682653764,-0.0001862097451080927,0.026262690759605873,0.013932560786149096,-0.004304552375504674,-0.0203089789508007,0.007298046626208043,-0.0101967806967374,-0.021447192385350228,0.009979208367284415,0.015348821897715017,-0.028215222044891235,-0.017001939010865656
494.140625,-0.011126901183689157,0.010220634874517432,0.045233458021474625,-0.027876252031201622,0.006789934029527346,-0.004276917919519137,0.0317761942165535,-0.01692185331042403,-0.029698544115841396,0.027038419535927893,0.03247564527498648,-0.02478527627633596,0.01466496717688793,-0.007100105555321102,-0.012651012151744984,0.017493073176045683
496.09375,0.0027226278559400797,0.0029968346868215,0.019862048605424634,0.01657826498875028,-0.01818557359880466,-0.00027911351124810304,-0.017420989574988822,0.007736551776319995,-0.012202513862187465,0.02004205947038291,-0.00180415087440276,0.0011831791271907993,-0.014323926245823956,0.003924258995835572,0.0011546145584296784,0.007828593974151693
498.046875,-0.014085029587020053,-0.01824109485713859,0.030488353315595785,-0.004208795040406383,-0.025762305682647237,0.005932521677067707,-0.02669469855852342,-0.14018914723845324,0.012161387136570731,0.009316154167955277,0.005821734641165595,-0.008549171272580553,0.04368350301951614,0.027356045281566984,0.01046074027836806,0.015409183681159644
500.0,0.001992563509307149,0.003971821669609653,-0.009013040328338474,0.022152452834519804,0.004164724105427562,0.01554681997936332,-0.021259702689667682,0.014669951412899694,-0.04902148072928316,-0.006100357063723106,-0.009681338883617724,-0.013229611491343937,-0.009881809841309456,-0.022554993209490167,0.011824910027864255,0.02251689536684444
501.953125,0.024800186143295776,-0.011893647345257224,0.008260882250491533,0.041794772168760055,-0.02225216001044638,0.015039006292375975,0.1339217457207729,-0.02858567914625727,0.02339060556537489,0.041952981986744214,-0.011569359628826938,-0.021707362273241017,0.003626396719751146,-0.03656836338373636,0.032019499465097585,-0.03219306479088813
503.90625,0.021236056819538877,0.0025804674024712234,-0.017242384325999425,-0.006293884394580775,0.017633589252315195,0.0016644652551688571,-0.018397395496678993,-0.0177957538272135,-0.05478856245786676,-0.004902024132260527,-0.03352660476361996,-0.0017832045350027789,0.005058295748376297,0.011454290377043371,-0.007522612029881866,-0.01397239464687607
505.859375,-0.013875092833058392,0.061111175973158426,-0.03706320689411177,-0.002584837837983814,-0.010751893669434336,0.005704711209468702,-0.011351178628745769,-0.00895203403876953,0.004032139539347669,-0.012069185244670821,-0.011909684975129422,0.009117201754624415,0.0019147853800340537,-0.002676266444065743,-0.028635829188310456,-0.025639317047097352
507.8125,0.004713501703011828,0.04235830416295407,-0.0003952993924848693,-0.020280644636205335,0.0018010330071478176,-0.0065381884571410025,0.010344597047552249,0.007670860839967171,0.018289119402748993,-0.0448975251911446,0.008851229635921908,-0.01290186310811878,-0.016305612034325786,-0.002702124392312633,0.005131996270303903,0.015646458339429327
509.765625,0.014204182536460042,-0.012352888535368714,0.03455071327752513,0.016972781527969615,0.011022464527877859,-0.019777437440791426,-0.0030165488487370207,-0.007784130649705109,-0.07552254575443894,0.0029074818218215006,0.0003435578325368443,-0.02860543041121432,0.0006103082413912588,-0.032435825378940145,-0.03629665971157958,0.019678376172765317
511.71875,0.00021293329584088893,0.004101501384128784,-0.012673064112220401,0.013281779424336589,-0.0022105520681934784,0.011723444352737008,-0.01792112975597626,-0.019565752726137035,0.0037968799753092105,-0.013136109154387333,0.009782975979901435,0.0006541916054195452,-0.018342885979513904,-0.012180414495830898,0.013468597328896633,-0.022147215863365124
513.671875,0.0029680474172397793,0.009871015167483472,-0.008368070263486174,0.001765513077570552,-0.0009387713801819682,0.0005734827240594787,-0.04499034244957469,-0.04826762089533811,0.7451216860151031,0.027398115161073076,0.010506146778437014,-0.01312137994922701,0.005673086099463765,0.030609031741284893,-0.020353468192362997,0.04052252227234001
515.625,-0.0013331190460533276,-0.062799728395123,0.028396923889570158,-0.0024748481926262374,-0.0004743867671401123,0.009925107365366028,-0.007008273021130797,0.008676162477453156,-0.004300963293240737,0.010138098571320761,0.009683735365686274,0.009468526756361858,-0.029117543176224975,-0.015095981187413907,-0.014811094613874417,0.013642207102449594
517.578125,-0.02212434185296921,-0.006863457602598984,-0.01625278014753249,0.011823151049755832,0.004546952711404921,-0.010708034772713875,0.02624395676395132,-0.021386450424971403,-0.002263025970774319,-0.0038402728686352645,0.007345968804947823,-0.013390854706758198,0.03192000928406651,0.022537276581473482,0.008943167501623179,-0.006777539765602518
519.53125,-0.006719578354268718,-0.005836950242226979,0.021252780706767786,-0.002939446443769091,0.008314021274974137,-0.023127363701363955,-0.008410214172916266,0.0013248635302690178,-0.011735232927253716,-0.011856829280879895,0.008721881514705017,0.9462199706018389,0.00552349045334688,-0.014371463031700537,-0.008441505950968752,-0.010446119662731672
521.484375,-0.02025703950659105,0.023826652698117883,-0.000829024500136481,-0.03083158521182199,0.007610231177720062,-0.004025887577192865,0.050309767401908026,-0.008293346302632678,0.007482772904635721,0.02460737196057752,0.029256788900496104,0.0022721265801299785,-0.024354833157301324,0.001764549792988471,-0.0389964944708539,0.014634528487395642
523.4375,-0.015747132553299112,0.02990614459991154,0.020528761183424,-0.012327628772754378,0.007258769373398873,0.0010013519850151048,-0.009821648812693607,0.0011972994154095008,-0.016723508183675923,-0.019104394376627563,-0.03690011903164,-0.000886197208081166,0.0018138190270123654,-0.0012836981757685928,0.026650990372365405,0.01147688837885334
525.390625,0.015131945480018123,0.014923378494677664,-0.03872181451330415,-0.022066352080242452,-0.017705538690425616,-0.051442695817233985,1.007663479940303,-0.013000015709123814,1.0288444319254664,0.00949859039030726,-0.03855760009082348,-0.0008754772067349372,0.020431622667678683,0.005930822700228956,0.006980523317117416,-0.019934465124106564
527.34375,-0.07081898420243221,-0.014328750468753622,0.02128022555936481,-0.027739769776863578,-0.051008369564714,0.027686032617911818,0.01678373738224444,0.0025697483268764683,-0.021474829839402406,0.023409168100995463,-0.018320500857391266,0.019230186115374654,-0.01779377422027692,-0.021949030384233865,-0.0150890491886822,-0.01346509202556415
529.296875,-0.028072379657746865,0.04994843999086197,-0.0007609681702566354,0.0038784728137477857,0.02231677089749368,-0.019086403747488424,0.014525745820566935,0.9379601052426637,0.04407993321954482,0.9886370001028082,0.0042318305099255564,0.012373873872174026,-0.014234210673324895,0.01376426910449219,-0.00975006612828223,0.9272882526178786
531.25,-0.009885996129678165,-0.004097096124014512,-0.03913983045113589,-0.010492521967073693,-0.013405617244239639,-0.008296542322760956,0.0011057660849499748,-0.0096010566637586,0.005110874843103244,0.008729457303636544,0.007351556896232942,-0.029960663208858367,-0.0437672637019499,-0.023985084620478832,-0.004336708940257331,0.017377907704664925
533.203125,0.8503679810984361,-0.0017704468988584418,-0.00858973103619323,0.00048585230280625435,0.004109496998470845,-0.0016864543859047326,0.005257619751024369,-0.005759087264319252,0.010746037321666882,0.006151588764855457,-0.0004693826721885935,0.017825670706254567,-0.0220349687155639,0.012468349001546291,-0.010638642648407835,-0.008359506897891425
535.15625,-0.01309956971837343,-0.0024621410535316944,0.021735903793429684,0.011455152837902643,-0.0078015105599244195,-0.033593929856644195,-0.027645844826863143,0.01501065714052563,-0.01913139628146597,-0.01662497446672035,0.7898723673296957,0.028981317830462795,-0.057487155758886445,-0.007615675315611242,0.011192991363334036,0.030832762628121832
537.109375,0.04002609534028955,0.009061548874886968,0.01613826165250831,0.018834092218477535,-0.026135263575538137,-0.01791575888312164,-0.028547075697281536,0.7528029521113647,0.0038004599742747585,0.0035545781910124486,0.022936333803845476,-0.0034214756953998096,-0.0025277035865710028,-0.012296676670666876,0.03053801372370945,-0.03301196906584143
539.0625,-0.0006620169474668648,0.681805596577301,-0.018129043126609713,0.03100398772473182,-0.005965485960244158,-0.009976616920495056,0.00010474493369174805,-0.007242466720223026,-0.01566968996919527,-0.00264222251155442,-0.0001398426603021304,0.027789682475965395,0.005753747533679112,0.01887600172548549,6.762278611889457e-05,0.03600048159740637
541.015625,-0.035159647639924685,-0.009113689073942867,-0.019213384628278624,0.002261067262418865,0.025864140521642286,0.032191222344637185,-0.004128235510450191,0.00946348025779376,-0.007077870861934296,0.03391194682478213,0.011718572522549112,-0.03410137210555763,-0.006282092241470019,0.06255828987981615,0.01807940899694468,-0.041509841838471104
542.96875,0.01717800015920766,0.03529088952743818,-0.0010366440716657835,-0.01619273889078136,-0.023316326868664864,-0.030777441528237248,0.005584494805147963,-0.03218773136607375,-0.011742514926464278,0.04043709176401459,-0.03148576429298608,0.016833771954465632,-0.030040043532249396,0.017964284665571317,0.048044531223274935,0.020286184462361658
544.921875,-0.0004977238978806155,-0.002873683029118299,0.0009121107073625754,-0.011418168835668152,0.00632687080870697,-0.028019314032895818,0.0021437071750201684,0.00953244650223624,-0.020819731801090483,0.022494446022032016,0.0025540108405944302,-0.03645121204406121,0.002521729927008387,0.009033801923155123,-0.008097604075392081,0.01207485908238652
546.875,-0.007861204881373022,0.01445288609209637,0.01841897141600452,0.0032580930181799325,0.017559953930613693,-0.016609434405403186,-0.015247648559416922,0.0338330284754807,-0.02663770930863751,-0.012353435117109398,0.003341725925163575,0.001846544247240157,0.005854639223550987,0.02184458235200727,-0.009476466414600012,0.0050398526020108796
548.828125,0.016967502377138982,-0.04174674249337801,-0.0057413193827333025,-0.017559545109444775,0.014023746335357691,-0.006613355267407016,0.012202013453967127,0.013183605614912773,0.010582782270518778,-0.007164491062369268,-0.022181764685591042,-0.0048376445263251305,0.007614777975609719,0.026646221471447573,-7.687442841157539e-05,-0.007070324415176643
550.78125,-0.022653261593419557,-0.009523939696641157,0.0008140030662873492,-0.08724655392512576,0.015137131714260012,0.026559778469584537,-0.025687123603566866,-0.020382781139406957,-0.01838417071581584,0.026179963687930404,-0.006579628875069168,-0.01257954017836164,0.008448041375571112,-0.006281498500871272,0.01460115280026543,0.02427915496662652
552.734375,-0.020394771891316357,0.03320775162948293,0.015178259696505932,-0.0060675216258950174,-0.02437646397079132,-0.011447530321377521,0.0332115053318542,-0.012167725901918641,0.01920172723475778,0.027158343740493338,0.012954185763915077,0.002537727828914813,0.02754687645599191,0.009876902355200692,-0.009171239785762736,-0.007785009395525736
554.6875,0.007566858973493669,0.01724003188682106,-0.022689300515389695,0.021160975432120217,-0.009127015758530537,0.021469149542381834,0.043249567303569776,0.003439699713489995,-0.006230021493844731,-0.3175282909757347,-0.017905933452946183,0.009038777023697408,-0.001982328780954319,-0.0007199270989172829,0.012043620402590589,-0.017820501358778516
556.640625,0.010733870302797289,-0.002638777890022166,0.010222886448246687,0.014823531464125142,0.012457894940855705,-0.00188809489434021,-0.019755375009266257,-0.03320143047770393,-0.004369596915005272,0.007638019399631828,0.007500512477678359,0.013745537038423778,-0.017314140228126666,0.027404362312632748,-0.05842817398127071,-0.005365787645034088
558.59375,0.0077227466797469,-0.01098022548272805,0.01343573399397749,-0.010437414760226303,0.0029197405598682903,0.004864347232378412,-0.024363512886173003,-0.020541213542989812,-0.010582630084560639,-0.011626647103095756,0.0026078419753386025,0.020549764199703384,0.0007973234895852413,0.0026097693845735753,0.009327423045675307,0.018088023679785504
560.546875,-0.023221727317683447,0.025698138651065384,0.03172757638245265,0.001415006896106957,0.0142418548051811,-0.010411506718224842,-0.0049205021026735305,-0.022860585892978673,0.0010132802347536832,0.0341672358168147,0.017153590793364364,0.0010248046073443992,0.02208118998118007,0.020248582071811877,-0.046336346683381935,-0.06119350473001371
562.5,0.031216945402104606,-0.041613133090774926,-0.014919027671763833,-0.0016942242885082395,-0.03404162490097361,-0.012794892714782471,-0.01255901185514103,-0.011225576599287192,0.022452681122600026,0.0027388531176422825,-0.004571302097716873,-0.009536205667205753,0.027718085199051484,0.011446871123763597,-0.013996515652905321,-0.03760615799323194
564.453125,-0.01255686158080644,0.011075830950819163,0.0013580623918755142,0.03485513166856745,0.026150452717312447,0.014062412033879262,0.008894025293028492,0.014144863377502695,-0.0036946131435009856,-0.013583714954688346,-0.023993213987638744,-0.00703994546193896,-0.0019853932338854607,0.009671853275655746,-0.032708082267265196,-0.002179447299781018
566.40625,0.01653602997547887,0.03572271286878745,0.02916110884511344,-0.012840657754831081,-0.001775724918918698,-0.0026953818272657747,-0.011311331058281492,0.03472978744591591,0.001050319769453657,-0.021804876155444155,-0.0024196584425013466,-0.014971814708993534,0.012563148279770705,-0.8990611687843922,-0.011232163574580702,0.016087151292828335
568.359375,0.014887649557088918,0.0034280762205622563,0.0174801970540888,0.009431896892206752,-0.011691563329183504,-0.012236838239099983,-0.004740983396498259,-0.0022929048314848286,-0.042242925804787355,-0.002337278732319291,-0.02294023996782265,0.018988613740923352,0.02158226868909475,0.02191295180878002,-0.02169863137945211,-0.02434214226235479
570.3125,-0.017684890176919345,0.0016740587348138688,0.037752472104415125,-0.013619456751446395,0.00018344363295877373,0.02433645050931975,-0.012529231005107222,0.012013152912100597,0.006088118818240248,-0.003267971541814109,-0.0029271776539850657,-0.003919434319214957,-0.009279578409198349,-0.9471896765203581,-0.04016713803755149,0.005569234784867847
572.265625,0.013268718002526816,0.012845356046454398,0.008386207546770583,-0.004201728886109902,-0.010626842153908043,-0.0036579981306257676,-0.013362002606150995,0.009027870618686762,-0.0444895705104603,-0.0052488157853082485,0.0029937805378515317,0.018723405462306972,0.0037863267338638035,-0.013786590156249855,0.01601996720106252,0.0054671054573392245
574.21875,-0.03246296516563272,-0.012761841378147065,-0.006948715826263801,0.02678827488546293,0.0179342492628641,0.004200730439606468,0.03824693414514259,-0.0019063347343163221,0.0236359129101813,0.012241472373403195,-0.040964600388431006,-0.015875108737650162,0.008759673682141748,-0.0009180059283849006,-0.034811113225393535,0.018676383873187756
576.171875,0.011829831787786895,0.0001066298751864126,-0.02207561956453933,0.006810667380589036,0.028984499473294383,0.030443126639134017,0.02745813818705532,-0.016341817980735595,-0.0018453720491762233,0.014172508044113213,-0.008035596357971837,0.01752487196926761,-0.016533752327565435,-0.003187236029365741,0.006774797462634895,-0.010569029580408793
578.125,-0.012238686441143882,-0.0014996521093097726,-0.02626017727128948,0.008000357662737222,0.04985853496393606,-0.020407666799069198,0.0011320394966298057,-0.021850948336033977,-0.010229222480663913,0.010142057710933617,-0.019083441890645172,-0.03550290479184644,0.05278370149740302,0.01917457526559457,0.014890380330648828,-0.007118692549490773
580.078125,-0.022602389185227202,0.011893268049486122,0.00528033195551062,0.02042899188987557,0.035193744816890506,-0.00011400300835167107,0.019169148528024486,0.05030168628575536,0.004547036391118273,-0.0015467074100478041,-0.002771013396032527,-0.9302559623698624,-0.013608898773505004,-0.013158984812998738,0.0003803416745838013,-0.0023674914983648813
582.03125,-0.006588075182512658,0.0016618012607899407,0.015040728801297785,0.01576179311151836,-0.015250200090812351,-0.004209800794028888,-0.005418113392129453,-0.009015147711791759,0.014171380550696434,-0.005885058216866995,-0.04006774165018926,0.04023473126592311,-0.04382288410015316,0.01714985655134687,-0.037236493214840086,0.011977220041000226
583.984375,-0.040818725135869115,0.013299174369416467,-0.006356767110184002,0.03150288518246861,0.03499964237567598,0.0036827905114914677,0.007040107876260787,-0.014234271256858002,-0.015463181611862236,-0.01584843102518758,-0.003124524836361456,0.012165752586175917,0.0005958870159821131,0.015801839375617042,-0.04302787352679366,0.007099575939749139
585.9375,0.02359751439990544,-0.03455384785636174,-0.01972245872825978,-0.017770672142092724,0.02675081492206222,0.014009659678459303,-0.009089509817779583,-0.0019814520011976052,0.0041628818550706525,-0.0040235246760454355,-0.005657963853625281,-0.00017086629178130608,-0.011517208810922852,0.00581799105144135,-0.009917123436626568,0.0007345709907277262
587.890625,0.028095411007844785,-0.009885475229948662,-0.01275479206747957,-0.014935878929677002,0.029281834721337205,0.0032552139721460016,0.01825330594773139,0.011235888663365367,-0.033213834990189456,0.0033203408236877324,0.002564237153506957,0.0229930084571367,0.012956183611982051,-0.05111705654025125,0.012433289713226882,0.0026376617889538713
589.84375,-0.0200402899234742,-0.03752641017188762,-0.019267197025759412,-0.02731131435166244,-0.004807870853203526,-0.017279908000578034,0.0030037617681061396,0.00821482403959895,0.0015739936746113012,-0.012609742616529475,-0.01507214269487434,0.036873072825928145,-0.002908608493092891,-0.032385611292864616,0.011914282850696723,0.005736616124353678
591.796875,-0.45755127081978325,0.02206420228842427,0.0064507924739541905,0.01503133335177016,0.031140891933603712,0.015930106470753786,0.030845783168644197,-0.04959638444396672,0.0035990957766219456,-0.003990497301910482,-0.0063412025335881144,-0.0011920062883143143,0.0059523803807773005,0.029832388805939424,0.0018285469895501156,0.015017863222013482
593.75,0.0062220935633377,-0.024414608354432436,-0.0477159547007728,-0.02693332871552367,0.01769688704503715,-0.010641402587904986,-0.011541561118603574,-0.006371317346073756,-0.010135254369054303,-0.008856389501125071,-0.007958478536376889,-0.0036592243932960663,-1.0041122318966482e-05,-0.018683614652724473,0.011932142694100431,-0.018879209401673376
595.703125,-0.011670357982895497,-0.006342224923989242,-0.02392367335737918,0.011895295245499404,-0.004898384779894227,0.020914916322274574,0.004110517666710803,0.017251779487754308,0.018402473152394145,0.014878280217921366,0.0197220447729453,-0.0209471487493562,0.029089051690793885,0.020590221621722884,0.05267522769594263,0.028233581443559762
597.65625,-0.021050521044043573,-0.014815954453036342,-0.015235808767615823,0.05711777804084529,0.015979694520093388,0.011729763157296494,-0.020182891495763373,-0.02932677757539451,-0.0005469974501488291,0.021860670585882147,0.01934128513235053,-0.013303171587455028,0.0058959927193814946,-0.0023599115804742725,0.03456664131167275,-0.02633489014408162
599.609375,0.006500992338625336,0.00963671924286653,0.006398640073194496,0.02667470439848642,-0.03485204462711031,-0.03059600731722698,-0.010094175291910278,0.022524088415925698,-0.015575105423853246,-0.029385494406990308,-0.027278448424703453,-0.004553450265962769,-0.006787994460388124,-0.0009756573518556045,-0.0023184385219467514,-0.011661738231861372
601.5625,0.01743889184338606,-0.06378785586771428,-0.01464831347052221,-0.014570335848367286,0.038284970948320715,-0.01819545266170572,-0.01074038776107776,0.006279440283303315,-0.011858490881980727,-0.00023596639058795385,0.014137273152076692,-0.01820833467002821,0.035929632176023234,-0.018675752720763068,-0.007092557182332415,-0.02804829852625418
603.515625,-0.007888693302908081,-0.006738060430331154,0.03542869227460759,-0.007116754223196599,-0.02244426141289391,0.001852478910703824,-0.02032470633056101,-0.0318750431445525,0.005448271285678514,-0.01092045871734278,-0.03253003386604844,-0.005436301582829909,-0.003289110063903811,-0.008429962777463367,0.013406669509315659,0.014841382327211375
605.46875,-0.02208558430623937,-0.014802695167072246,-0.01754252496254223,-0.018382406525945458,-0.030963579327045365,-0.0024499112844446475,-0.021687816947716314,0.011984491420888374,0.0003123066479777688,0.333505078322588,0.02519383407767153,0.000699914734781876,-0.011443734137303836,-0.0015925371646288474,0.008490432381200142,0.025135753465708604
607.421875,0.009536300647658386,-0.006468877183145151,0.012526402025710108,0.037985015436061205,0.020010964088717734,0.02277800986372055,-0.0255283746641293,-0.026433030659330625,0.06366362177507495,-0.02618362877676112,-0.0017841538395155353,-0.008925887539151276,0.003588688956422878,-0.01729456924268936,-0.004764065186772011,0.007057352065886352
609.375,0.00609908279576097,-0.003587073501509743,0.021337252363847172,0.06107955227686401,0.043406948440320524,0.018345066663658434,0.6013988449905356,-0.0054617416961915514,0.004619400165800385,0.026885536836734975,-0.029474330107754236,-0.04059677414290925,0.03738045537284858,0.0034272571006578757,0.02501078146877449,-0.007346375952593694
611.328125,-0.02500525012215942,-0.028344978133380442,0.003712799507887798,0.00559774538388112,-0.0252922829712856,0.020557147575871907,-0.03478939006100517,-0.0025622432642818157,-0.04176093473700316,-0.009872319737955578,-0.001029539420526532,0.0020898276626007293,-0.008357439475496968,0.02784503972714191,-0.015285259395372825,-0.006686472558371033
613.28125,-0.055614063649881584,-0.010967807399298302,0.00814258597200326,-0.032134597851797606,0.014183967141285241,0.02018262470817525,0.7672172408390561,0.006008765270779717,-0.0031559876807089886,0.018255611629357654,-0.0012880613832845806,-0.010797077698661483,0.02285941422915919,-0.038688080548932184,0.016542476676700522,0.04755964291747633
615.234375,-0.011505435999177733,0.019995000468376482,0.02630745120336952,-0.0012196764172172077,0.014421997353591542,-0.02513512254627291,-0.0026068177167910584,-0.020053698090465515,-0.05382333615890816,-0.012687254625862707,0.035928435430311406,0.02976324786533908,-0.03317732487223701,0.0030906550464051153,0.015284074201394375,0.035998299007499755
617.1875,-0.01763768639215766,-0.00668068242292387,-0.005910318402748538,0.003186435549207093,0.02968717578752032,0.03480852209778055,0.03625785258088134,0.004661299546618015,0.00500164969748352,0.010939666154581296,0.009464699599913503,0.012820799582627128,-0.018092490795571004,0.8770544982328043,-0.009382255911348709,0.008628849421799265
619.140625,0.0011462779566225447,-0.0096275230200474,-0.009704417546193772,-0.01832388302222111,0.01139174873283944,0.0004086117815147889,0.01224237424059514,-0.01797235096193503,0.923208588978997,0.003879453750410825,-0.0327629112863259,0.021205187028523906,-0.01613481030120592,0.024263702913943783,-0.01624912739265755,0.0014882318505868705
621.09375,-0.013731186393006354,-0.0192494154628967,-0.027933058515701395,-0.006236011712459423,0.008714039939055057,0.00484994517260621,-0.01742717733296696,0.016782011106797258,-0.002721951529201134,0.00044571171458677886,-0.012097734613391274,-0.023707186058688975,0.017977812386593274,-0.01323649797662896,0.010457891232096844,-0.01210069791281784
623.046875,-0.011943037274587929,-0.010619835584103201,0.007677199984720043,0.02660166641220819,0.014916180253135887,0.04359826239394194,0.00370525779725302,-0.04028798140460459,-0.02565244379367576,0.0012343572803889392,-0.012044843353768058,0.0012873265252626024,0.00642256125019944,-0.004873467062923475,-0.0054035177529523975,-0.010838900733411197
625.0,-0.03275040232108635,-0.010768415169412729,-0.01811615264397963,-0.018109878520950244,0.001233958926896455,-0.01784507648849121,-0.006765481102216646,0.041935570020142886,0.0016343442516904153,0.017346397415578377,-0.01244266988578818,-0.01034081460711137,0.02154749240564397,-0.0242840343805938,-0.02623938831582484,0.005564955540761148
626.953125,0.00012547268777115948,-0.03239952685977886,0.001131666786943336,0.012220817924773884,0.012590846205924147,0.008761489218542693,0.9877163733859003,0.013956380237999133,-0.006192568917275276,0.027962595683823636,-0.005857152019171974,0.011963248657601351,-0.003892884889221269,-0.021825951416893922,-0.006409823207474364,0.00789331110720468
628.90625,0.016176107534365918,0.9746756365762651,0.010638584599765613,-0.006329785681505198,-0.0442832705201964,-0.0021198428663635246,0.01848685915300023,0.0006927147957584225,-0.05634343660244917,-0.016433043945048922,-0.01180225170526039,0.05517463599428025,-0.010061754501377222,0.006638304402173263,-0.0026101318699823196,0.011187316269374602
630.859375,-0.001956587941803659,0.003885988762482956,-0.02557718145415929,0.9436747198632098,-0.04693011115770456,0.01709444150810124,-0.0056101515786383185,-0.005418612817821659,0.015397455762714484,-0.008299994927562837,0.01705736966428983,0.027910497531428508,0.03954054491854598,-0.03379393803096413,-0.017194904507430532,0.01368345872298242
632.8125,0.0278130738689698,-0.01772542979332921,0.001235399830915703,-0.05868766173111687,-0.002078441638196017,-0.020791639562692015,0.01711895898013037,0.021232920626124762,-0.02112057421071078,-0.01325266159764495,-0.03121386630525167,-0.007868470277872077,0.014929445991126953,0.031489976676099866,-0.044560154933419645,0.005877037911681993
634.765625,-0.008858940965646987,0.00489488173009961,-0.004428289728069339,0.008562221578842883,0.03155565658032175,0.01009315897980649,0.026881133759803864,-0.05732076851075376,0.006458589532595838,-0.02520262037822148,0.007626864204755006,-0.0033000133549925233,0.023418776561492143,-0.005341443756996459,0.003839861462462372,-0.023890881228082316
636.71875,-0.009685855374573994,-0.017674159314496923,0.007302257497885489,0.03593340540978035,-0.02176027061721313,0.004223254523971668,-0.00833655156387225,-0.01602217139165934,0.7186943844748374,-0.008259300128111331,-0.01270700221291192,0.033617859075808554,0.03787159595667856,-0.013413125678446576,-0.004576423015066948,0.02360170017342504
638.671875,0.002191890657865438,0.0024575119448952652,0.030866410014045803,-0.005256448182583339,-0.04455325330687324,-0.0006338028414590276,0.022616031420527937,0.004527925112160636,0.6477861802804681,-0.0373589025357446,-0.033891833849739685,0.00970687354405549,-0.015470049242261886,-0.0046017201055679365,0.004548599650934389,0.01887283448136726
640.625,0.02838923315063879,-0.010527179163823772,0.014568860459684314,0.01782473324799689,0.01627016791938439,0.0036050193603577012,-0.009563153838430762,0.5872362324837941,0.014015230718951404,0.04441786393143571,-0.006216889817735898,0.011817955314986722,0.0007628088951097547,-0.025984596961129078,0.00532269458080056,0.0342060926830207
642.578125,-0.028217074294413672,-0.0011119984157692791,0.018134837039961597,-0.004106185964523292,0.0015939717465374254,-0.015922769565259027,0.005708943511674314,0.004645885952712138,0.002638021909038634,0.03344806144801134,0.005800403932989652,-0.005991180309449343,0.028282823545942054,0.01824117673639,0.011608837893514187,0.004207889362738206
644.53125,-0.022072701431639412,0.005426787465036009,-0.004450357709447652,-0.016331682195235415,-0.011425551480225535,0.011382579724182138,0.015989536990124335,0.021197787664121334,-0.01656626053148668,-0.018917197060458815,0.016731646454401602,-0.01150156363763081,-0.012689783693984292,0.01005865360728283,-0.017586381697671686,0.026384969688728263
646.484375,-0.01734511220357477,0.008085672115419917,0.006666780940681426,-0.02968265282579943,-0.023638996512445668,-0.012505784135960452,-0.007340676156860433,0.00855484221430346,0.011781342525800301,0.033910641466623107,0.02993300195909399,0.023520551723566784,-0.006588102038462492,-0.022317040892228787,0.021594649914579014,0.005236411814980029
648.4375,-0.03638000011849273,0.01957126353542998,0.005901382862963016,0.004321617249069371,0.0011780107175870269,0.009163669372158924,0.019900687178914668,-0.02481663170267732,0.11092762490537245,0.019386400260186704,0.007868601393968593,0.023792152992104923,0.037715482696767236,-0.0034762827843357693,0.003729054367350625,-0.030492358562118498
650.390625,0.005107474403281369,0.013739474592379728,-0.0160245828224405,-0.0517340837568146,-0.00920201957367764,-0.0014382010124281003,-0.008739047589639372,-0.008023385753667877,0.01756424155773569,-0.021775538340886795,-0.0010559251059349159,0.03775321852847401,-0.02135170064820865,0.04463738532502391,0.01967544020492665,-0.011962956765355732
652.34375,0.0010134748411278773,-0.0029261576238046247,0.01126712319483701,-0.14106063710083777,-0.0047041465459650164,0.014664705040939275,-0.014440331635782004,0.007322578944241226,-0.004724261678002329,-0.004951033912156068,-0.006550614359050495,0.020807497339937885,-0.01037294303717349,-0.019687015942898078,0.011952020669162806,0.007501400267111851
654.296875,0.0183167729646554,-0.016049181888008177,0.015738299210320404,0.05200411700235719,-0.019369569864005672,0.05667720026524994,0.012094095301488196,-0.003800549833816066,0.0005687196712214564,-0.024473327085263317,0.024953006366729445,-0.027518859758762948,0.013525105042243838,-0.014921656228325354,-0.022552693180133036,0.013958433924461298
656.25,-0.0019619328282136704,0.00861529729465078,-0.0018675789219833238,-0.025444098600365866,0.018117706199705496,-0.0286737228665951,0.017083355199654253,-0.3652351744983109,0.045498351189099014,-0.0038262976446168735,0.0036869225949576834,-0.014150444635058677,-0.024656031648383325,0.025398455793438735,-0.0018313654675246305,-0.0305565263698408
658.203125,0.016350130938117057,-0.0313346409143067,0.00780646045059824,0.02628111630193305,0.02639292284303596,0.014949570599895958,-0.02805875850678135,0.007404009089398465,0.007623978931545648,-0.030375647295497524,-0.0025607931706285543,-0.004228780809753345,-0.49774585858574455,0.013912303380805728,0.009377185744459287,-0.010705844686121705
660.15625,-0.004068229839970158,0.025365048646572387,-0.0016230558255901383,0.014137953269807706,-0.0223007006418809,0.017998265826382788,0.01702258459301289,0.002389006723422217,0.002840165168492197,0.005337531965093595,-0.015365384634283675,-0.006235685918632457,-0.027544537312471997,0.006024435550236873,0.013914397728432344,0.017273234303504876
662.109375,-0.01492521167377107,0.010140380454844429,-0.008841854641133438,-0.003732763772658953,-0.014994313141580394,-0.016814029338505367,-0.012241095667079706,-0.011136036146555341,-0.0020187836899246405,0.04160686598262507,0.02695375657091406,0.024809696167912145,0.015537049011777446,-0.017513513063413637,0.02517023227809566,-0.004388211506895184
664.0625,-0.00890761539535862,-0.020988199108638673,-0.028264297820969873,-0.014258750831138922,0.007197626649077827,-0.018209238626665004,-0.0016681280581160249,0.018794101189257832,0.019149447444807594,0.02834746178338611,0.0080739023167142,0.03784812957108457,0.04310353046983182,-0.04311589915287784,-0.0024150060516828042,0.015528433580390704
