Time_ms,tensor_fasciae_latae_left,rectus_femoris_left,vastus_lateralis_left,tibialis_anterior_left,soleus_left,gastrocnemius_left,biceps_femoris_left,semitendinosus_left,tensor_fasciae_latae_right,rectus_femoris_right,vastus_lateralis_right,tibialis_anterior_right,soleus_right,gastrocnemius_right,biceps_femoris_right,semitendinosus_right
0.0,0.002589386392421935,0.0070743335752702415,0.04808701132015299,-0.040127873893031095,0.025860686352896966,-0.007811224195121847,0.07080072911969837,0.005178139784425491,0.1251596263930199,0.002906487851056877,0.02456569821891411,0.15967749595616254,0.09934919196158923,0.10679973359105766,0.1021413720098528,0.024044687854680283
1.953125,-0.030424455010979342,-0.010977508690633221,0.049512201558549795,0.008364330394572355,-0.006228440209146,-0.030699558412064978,0.008991806441428449,0.0052989144200248665,0.03263744145608436,0.03734639081878457,0.12885471467074439,0.008221912524992166,0.0558331328728074,-0.011039367795138224,-0.02965688951831414,0.08431318387521353
3.90625,0.004366543012715384,-0.007722364551119419,0.04097906993716086,-0.0005653497702811756,0.05604040590845688,-0.028298969634177322,-0.017327095272478568,0.014936304173459493,-0.0004292672457930208,0.08932924113133231,0.1674655906363512,0.11725309630203962,0.009292839881739276,0.1780227371637262,0.11328308539496504,0.12155177457992841
5.859375,0.06878326113764159,0.021510675615348005,-0.021613921475552494,0.06750234557326243,-0.03047033974926054,-0.0409892200423158,-0.026495981875123358,0.026985855180887336,0.1285578778332287,-0.008370229870394277,0.13524244609467773,0.0907539247275149,0.10166395327578007,0.3018880935326179,0.058520454427883666,-0.036088928211407176
7.8125,0.05213375820323783,-0.00905777721397829,0.005774707154358051,0.025273826860489693,0.010752968113085104,-0.012084979953773996,-0.02539533309686436,0.008730394560769688,0.04532757706683267,0.09136868908788837,0.00445187221416141,0.21462740763267107,0.13329423606309185,0.07674830073317068,0.07840056305139338,0.0791464511807907
9.765625,0.006327634802987395,0.05165446489410464,-0.014175178571874865,-0.049155423554735914,-0.031179764494034208,0.00851271330968271,0.00568012552455357,0.0017950838773007705,-0.021820446711973956,0.16409618199044015,0.10070128357748732,-0.027401069924616432,0.07798738697215354,0.26124720429956305,0.10930514093495707,0.1763332061637331
11.71875,-0.0386027417168216,0.029885328977906366,0.07200732424947424,0.04339919143280239,-0.006389508452025274,0.0572927389747282,0.030091143889707087,-0.012484480529716017,0.11914946999652118,-0.0012596592399663625,0.3147763004474247,0.16512568043411444,0.059165373812952324,0.12298832655603789,0.0742669683088729,0.06405119904043281
13.671875,0.011542229376663124,0.0016252287714053064,-0.014492554519366553,-0.02322961869381765,0.027475114521318976,0.029104876995647434,-0.010719232435715499,-0.01971285651145914,0.19491756319733217,0.1534070681916416,0.09748421931697179,0.23979303648573208,0.1165410448625592,-0.0012479862435146381,0.03925934438327093,0.11406490571378256
15.625,-0.04223514787654619,-0.0026370638202290056,0.013127975685801471,-0.00011241705204083179,-0.03235898373932604,-0.03959909053003743,-0.04722023012412393,-0.020301916225730604,-0.03038603801890436,0.12107426948417223,0.10586164884447541,0.016721991828700985,0.13319462206201374,0.24743637624053266,0.12510178611229827,0.18638633106686098
17.578125,-0.030572639057725007,-0.010364425609074917,0.0038768786854521003,0.014638650103170687,0.035875027646660465,-0.006306673073299571,0.01890397198059482,-0.017414903261579972,0.1185896170314782,0.02107151249997097,0.26778997239589086,0.16094550442767214,0.028186086849529918,0.19601379198718583,0.12154130364213118,0.14216560414814833
19.53125,-0.028742302487850077,-0.024894954279953144,0.02247403546691416,0.003574456044534751,0.02281747767371086,0.023332857922768704,0.00825986471916871,0.016300790081467294,0.23004511014388057,0.135844017489809,0.2156174928246979,0.22997324504371564,0.1833978266261203,0.030997611969003833,0.05505979362395406,0.020048683844496862
21.484375,-0.00538173839564791,0.030190803819594204,-0.0035845667660187063,0.03304730809579019,0.03727916667457302,0.0021630903676432057,-0.046240166563853796,-0.028783249873781936,0.09005477653094371,0.1883822069408203,-0.02915054554828163,0.24006892162334253,0.12218091474330497,0.24390876959018498,0.10007574048266404,0.22582346106168938
23.4375,-0.00820957114796824,-0.002568120443775963,0.026730993124020913,-0.04328690280619793,-0.04686046016253746,0.020085892297742845,-0.004516689882711876,0.008131463399160007,0.014114147931917016,0.10904481210840936,0.1837928551613984,0.09358127320720365,0.06368420873678188,0.23314248929970494,0.10463021108889911,0.18760522273290242
25.390625,-0.010099192847327201,0.06612421496471582,-4.5617985916987935e-06,-0.04930285204628665,-0.0008935947552380777,-0.0031292726133342955,0.03342612990240578,0.024005483339304898,0.08992306916466325,0.06960653044500181,0.18078528455806747,0.26660748164302334,0.06714091642223324,0.073016033869778,0.09972049612789703,0.04848824818618558
27.34375,-0.008886846476249372,-0.02694083699021355,0.007852082139162064,-0.02622757670626542,-0.010922685290081377,0.009091989811554672,0.0462025642881691,0.04956302001162862,0.05903879492630987,0.12200931145350279,-0.02751039560042462,0.2005567507311316,0.13672819061393837,0.049511678273022997,0.018621977838082157,0.10867193285321555
29.296875,-0.00807183538203433,0.053700753109009604,0.004286372509189204,-0.006160581670665708,-0.009170231643376686,0.005759229899594326,-0.006499848503061683,-0.017952536692917118,0.04911883028131683,0.095215429910991,0.17658735730993294,0.051537269429451735,-0.013788446509437488,0.12589176079604214,0.1940537379233049,0.12483462763661662
31.25,-0.02001661402041055,0.0785459127547754,0.011138641426045513,0.017452817736918234,0.026593194606032544,-0.014565104519052316,0.005711681029756453,0.011146238690193462,0.18779871609804352,0.10907728368051794,0.1396219656210524,0.2833986286370958,0.15219138945061897,0.11487273632022862,0.18314751793282175,0.004518288520259782
33.203125,-0.02043795846062682,-0.019232318629287946,-0.026233825125584156,-0.00406642655032745,0.039714550020859274,0.03907322087458316,0.009598801053693285,-0.020591226874341652,0.08041969940471447,0.13782615754979954,-0.07673135732139572,0.1007781831871282,0.1632852830745093,0.15698449769643374,0.014167195932325188,0.057210483365670035
35.15625,-0.0469926716735438,0.0009929762559129048,0.018840304681954575,-0.014240696987407419,0.004355089947622092,-0.007896077529839233,0.040820769991397964,0.0062655614398632545,-0.012149036201891462,0.10196924359771621,0.17186100461622988,0.13063972757118641,0.04158171198483387,0.18025202253468597,0.13792649106417876,0.09746501612369429
37.109375,0.04481100620267311,-0.020805474785544373,-0.0263242226320384,-0.023605060630143844,0.005594887936017998,-0.0021522448641926465,-0.016132506025461364,-0.038105754086518034,0.16798959030915017,0.04414380774737112,0.254608393049223,0.25154621534855526,0.1272572115314463,0.306953188533811,0.07567057716316328,0.10020260642560468
39.0625,0.013171139069725587,0.040793749464825446,0.02815664532823149,0.05407497243834997,0.0012667743314956866,0.01328948464434653,-0.010758048223270707,-0.007071033286378342,0.14844769483526055,0.121705647340739,0.08125242064455437,0.2344571031134285,0.2342215900100426,-0.025744701506410894,0.05642010065015167,0.10911112583627079
41.015625,-0.02225451251888336,0.007777140922085111,-0.027860555988443794,0.007753336451168124,0.0017471340915983682,-0.004961607452537088,-0.00419889395637,0.016491588407176194,-0.004526830522963408,0.18689533120503787,0.11132865223754765,-0.017379615259601588,0.12686265366734453,0.20103022201777,0.12424889348530699,0.24134875800836297
42.96875,0.042220825410715535,-0.05106010121649685,0.020271208327738845,-0.01452485557970143,-0.0028202725062009652,0.0020707573769782957,-0.016330645952828834,-0.02166563411619046,0.20571228984706974,-0.022060414736452972,0.3493610996149368,0.06378111496107802,0.07002541567277701,0.13968649991694349,0.18774428905130255,0.11584574830644202
44.921875,0.01970774098571163,-0.013464507115592262,0.06533764077078981,-0.023896565523273478,0.021750420924193586,-0.012043894374391814,-0.06515786546980243,0.023450156057756386,0.1840185194037998,0.09304461137052829,0.12402591157588996,0.15802906528618563,0.08888275275138824,-0.08284598932263837,0.0981015864670425,0.06573954797483526
46.875,0.00894329495338839,-0.008471352872626722,-0.023463475721843142,-0.0170178844991705,0.014645276998801932,-0.058755103152939005,-0.029746795312621956,0.023522607125979825,0.02883962149226309,0.16628559753491132,0.09565160725408295,0.08796463604166105,0.1250020388797602,0.17164007895007274,0.10551736484549938,0.1590986842192516
48.828125,-0.023597913061447297,-0.040785574058740844,0.01322493535714962,-0.060084933715594036,-0.024244283154802107,-0.00011760522412876105,0.024272832787830184,0.04717419039190866,0.14461694563901262,0.0768727937841713,0.16280123428621923,0.16439136758783143,0.08152706295027892,0.3116673808426555,0.20616504462959473,0.2087883066048044
50.78125,-0.002640142598499866,0.02146792915103274,-0.020129676662697046,0.05531865452361331,0.005464757056505175,-0.033080011280031504,0.027140508030667455,0.017295534322069744,0.12694830202781124,0.055361090499552665,0.13318180580272043,0.2914621023396149,0.12862599280943504,0.04477234205678657,0.13944758312144895,0.0217223610606297
52.734375,0.02233247194357407,0.010861561054153871,0.020599616445970567,0.0008998161922195645,-0.007809348248582791,0.059366308277442714,-0.016022549810356963,0.015053862952890894,0.10888668600313808,0.17338901914405572,0.07146397498905992,0.03708300359011282,0.17267348364410043,0.19545044543612228,0.15246226814863129,0.14054097326740894
54.6875,-0.020951892159156247,0.016720249080392026,-0.00863769176184887,0.07695760443880534,0.026663611215862745,-0.00883274893522267,-0.007072400962733031,0.012587911358889044,0.0744959723483137,0.011544037004535178,0.15684991774388107,0.0512149762232635,-0.01786225920620501,0.2215430813705648,0.1448966097981167,0.09265683476224296
56.640625,0.061087740383089235,0.007155030154722517,-0.02257331008867748,0.006087698848330393,-0.021296991964266626,-0.01839641438340536,0.02792803511646588,-0.026428172801054316,0.16869172788144163,0.08209302890291847,0.11005845911811885,0.2516277173358091,0.25144436013176674,0.17889968603114415,0.0837520441117337,0.007334197828784035
58.59375,0.055873201501628056,0.02800829452753347,0.027825183603597228,0.034853128580915695,0.08310073456855134,-0.00584432167918501,0.08500106073549452,0.05910814101312225,0.09064706034405227,0.15290040819503564,0.0764410799272823,0.16813409141167104,0.1663090750334947,0.04884264987231681,0.06413462921816052,0.15230949798425558
60.546875,-5.457178595347778e-05,0.03868973963426118,0.039864399248511456,0.08956271537659194,0.02835369398570583,0.06591847673677452,-0.002028234650521075,0.076563893273911,-0.0517952981413048,0.04641382583806983,0.26383618684398746,0.019415910828808523,-0.021273034673441327,0.24720642915636212,0.15339821020626962,0.20706858993918775
62.5,0.07048893441313443,0.06030376855636668,0.03606892634749414,0.04948156119244251,0.08230198514614302,0.033264829865538595,0.0652778055459923,0.022953138429443902,0.16176795353157322,0.09444064332432449,0.21674538956822165,0.26054324573218346,0.15745136875844568,0.1221574079047004,0.1665023977610929,0.057547379706861024
64.453125,0.13133563552158903,0.003052386518769263,0.05341563718109583,0.038351121173946005,0.09417634239871665,-0.0032539613648702786,0.07641634733926099,-0.008765448787028066,0.11683362527374214,0.14752433615947985,0.1009116487525728,0.1338493186991914,0.190463554353359,0.030266863522420046,-0.06208146858962268,0.09329352254864381
66.40625,0.058160105178418874,0.03111606292409793,0.10207264008085433,0.08447194320027757,0.1040432094636975,0.1167909171839895,0.044931024987109686,0.10540166429130207,-0.07090498797809248,0.11202208792215199,0.05927302651007039,0.03574856954064655,0.04564483867755778,0.17257557190246714,0.18832880442866246,0.16975167383599668
68.359375,0.010875417158381792,0.1437646463595878,0.11241090349530349,0.031248510458059698,0.01728238430669006,0.0835998144417842,0.08004002387565515,0.0439833148557533,0.0722665115352511,0.023029062926342183,0.1943200694568713,0.33285809987533316,0.0087502084889209,0.1427520907286557,0.13429055013029365,0.10293038250738232
70.3125,0.076370247290362,-0.004259823472839311,0.0694413343092934,0.04412642730249098,0.11901445504800905,0.019626567044399697,0.09383620747169213,0.019464864284983657,0.15996796027565752,0.15808734432290178,0.13536033128968583,0.1809095847377659,0.21131048724491994,-0.030054979169246078,0.027978165025534664,0.027898903714320272
72.265625,0.10185202827358575,0.08178370653698319,0.03936139803272665,0.16991106243120457,0.035431244206714486,0.11632011862531791,0.04651259793464229,0.11689757773426768,0.07354060540861466,0.1557443727489648,0.2558477279547227,0.009945349635024664,0.07361997893557654,0.1467107019083673,0.07669527676097385,0.17748573445305618
74.21875,0.03735430508865365,0.1336388542777809,0.07366388534392683,0.08128343597164649,0.040503748131633634,0.06910091953433489,0.10820639673159448,0.08111631734511664,0.17637625619649278,-0.017294898856319,0.30309723346790557,0.1145517032479508,0.07908815473991107,0.08296147595478054,0.1513237348073658,0.07114649098717879
76.171875,0.11604262077943704,0.0393764044515877,0.04982063157428936,0.009037396361836163,0.059567736322758226,0.0179112924977522,0.1307278096951196,0.0057647943401340634,0.11196533668721871,0.15227154791068237,0.21406011355104862,0.2783345955487522,0.14714571070024254,0.01955480414184709,0.05448500382464577,0.011173442455749527
78.125,0.06593943603977112,0.03479055492662864,0.03930680622706467,0.12505056735690825,0.10013664080920436,0.1005083970695306,0.034387769840820155,0.054441514679616464,0.020327203002123005,0.06407575403744872,0.014573893279661458,0.09883867880742253,0.07736769167618253,0.16767080368833678,0.06900129864943404,0.07973983193985491
80.078125,-0.002025798759608445,0.10041105717307153,0.04633047964573278,0.05460867015670406,0.005160510517073786,0.10231517468335805,-0.0029737091732094244,0.13236814569055852,0.0859032959754736,-0.02000927510247693,0.2379309034681057,0.184398884978002,0.06250944315837548,0.26693841456338646,0.19168129638312797,0.15929745176089216
82.03125,0.11049646009345113,0.060486415258452005,0.0620902540356436,0.006752899029861498,0.09769788521576209,0.018982205347685018,0.09526485497678536,0.03346585749983195,0.13259946830812064,0.09216864261215034,0.20046019709703783,0.2547201698840734,0.10514217318717628,0.015379464161799522,0.11186101707676986,0.004645880589898038
83.984375,0.07898522335515917,0.03723135840900675,-0.01785829881354754,0.04197919785320008,0.08987271584395466,0.04396522579777129,0.05884701820214474,0.06827677431005003,0.09393149695506399,0.10370584601942431,0.11785801296419945,0.024269508161509544,0.010206963338370123,0.1495543276475439,-0.025370587723234084,0.16769789069465818
85.9375,0.04112314070391491,0.07022182734909442,0.15143047602970613,0.09955578549797002,0.014960222050045153,0.07990615689042656,-0.019826473391999555,0.08712897425386706,0.06170793069365017,0.06242265960227927,0.20164182318675383,0.20793652146692118,-0.005357524315105646,0.25384122037876206,0.14602872884698037,0.18020853440704387
87.890625,0.032651465653335605,0.0756346940751478,0.11543598010082329,0.026427252690901664,0.048402475589950734,0.008470138442328487,0.12009755931715245,-0.0037001229513298896,0.15667824876412415,0.11727998854553245,0.18556189048365362,0.2931976932324835,0.21402118078401405,-0.01153504636754258,0.13200820445103764,0.04835565898504736
89.84375,0.12509824996525098,0.05005685406441303,0.051463011201122004,0.010852626057691162,0.09242888582737407,0.05380676360773019,0.08798506452630028,0.10523460087243633,0.08569191497669679,0.1668200286794033,0.041923562094531554,0.06152961195557742,0.17897793919698773,0.08917414545624597,0.05156765751491685,0.1330875061933913
91.796875,0.08169498083029128,0.11133545925746788,0.09948576056713582,0.09969958200395901,0.042226596416227634,0.09858239259590938,-0.0003652372361205715,0.10058360243495425,-0.0298728353983928,0.031925132551388874,0.27994078274317347,0.11328803851743621,0.08625598537460558,0.24802669113333928,0.09895638348345631,0.16969202677597758
93.75,0.09344290369084361,0.0700029125731128,0.0750817778275447,0.06999914125959954,0.10909342200482028,0.08429507753679091,0.11223821390270103,0.026166668328247482,0.09464861040042845,0.10276582192268592,0.09120660984175438,0.13171433147148198,0.1364335163273096,0.07226354346851989,0.10977121896168646,0.03742596718100672
95.703125,0.07375572598196485,-0.02666813884400856,0.05325883041239726,0.07199063029569697,0.1216930197070635,0.07921723936464815,0.12277606189648863,0.07303305103956292,0.08866905532937218,0.168941970805487,0.11512241345542608,0.1837802362592727,0.15645592612560194,0.07490948338494292,0.05788866186490694,0.048298808141640205
97.65625,0.03349187453208431,0.0627762068726747,0.079745765607864,0.06966021677201589,0.0858229246522435,0.10894720602311835,-0.005173228516416016,0.11884816986959329,0.0005087013377552936,0.07971728825169817,0.2231505365551068,-0.09254480655018466,0.02230284059175585,0.23576023143779526,0.15165398751196923,0.199410542533446
99.609375,0.018648923692405724,0.05465786605413385,0.08359368709897005,0.07671063462414295,0.04193268517214683,0.049312891469067165,0.06596554915186309,0.09357079794936765,0.11076579407719528,0.05133327608771341,0.2340771865911819,0.2891978669937251,0.05887086611536327,0.13402912361891497,0.14990148263060782,0.0019623088990979864
101.5625,0.08736639362575649,-0.005861019169885698,0.04082135678152559,0.032432238749819604,0.15848686446049692,0.017411262250255858,0.1332238307439641,0.030446047409760504,0.18387832379667887,0.07317167961160073,0.05702878571035766,0.18458036293276645,0.13542031071929989,0.009215148193425168,0.06037629887561226,0.003705736431830156
103.515625,0.03976930514210571,0.013693089101222237,0.0224611172178137,0.12639439612025996,0.07697020408275339,0.10323426801787258,0.04260582751770297,0.1254309598087344,0.07535104474681112,0.14773921431140297,0.1321109654255499,0.032023830673656384,0.070233243082105,0.24692439061370125,0.11194761942554754,0.20447267614507003
105.46875,-0.02069996817129649,0.1228224352891839,0.15075784172477913,0.06764945792662444,0.026702353852261097,0.029854387788022407,0.03552063521936451,0.03516318569049874,0.0947608007604067,0.028313714844084483,0.21043225967546142,0.14681819559386516,0.06250496457524349,0.13838055191658247,0.1545493490610843,0.10585158598556842
107.421875,0.12314955452251795,0.07372982406823882,0.09304339340091329,-0.027072372114368606,0.0863084943617582,0.004379512540423405,0.0932571015631277,-0.007754961852937635,0.1442635457559337,0.10302331374493054,0.22511048936750136,0.12061930579408328,0.13065276589872632,-0.04941941024712621,0.05917220150826426,0.009855323088457074
109.375,0.10296710536255216,0.04011475336533728,0.049436297249751945,0.08968527481517212,0.08041069756797885,0.0987963297171861,0.04732694156846513,0.10327313486996569,0.12233020912045195,0.047028508620822806,0.047218249276345506,-0.04403474607700444,0.13212750078639893,0.1453577304494008,0.15227265518460895,0.1014296062592982
111.328125,0.06885032560315112,0.11652131757619444,0.07906592592279252,0.14044290011033286,-0.035835371860299246,0.08144455193015396,0.054001592687231766,0.041418506259204776,0.10530204198359908,0.022080873202049663,0.22397967211734332,0.13531207002513776,0.0831246040886996,0.22811243233063924,0.1050643586775925,0.07411155517715706
113.28125,0.10472398483080933,0.058444607985625556,0.026508255780791325,0.00879578222952499,0.028351419172011037,0.025601029008107838,0.11869158786356254,-0.02221646657842225,0.17430183487520257,0.13893701887024648,0.19983716990362882,0.3338295397104421,0.15291057688455562,0.18062591969048747,-0.006422901134653769,0.022238267398927373
115.234375,0.08481775755920613,0.08911151058822715,0.0432388830304784,0.05367267057773209,0.1569277801246156,0.08722973418365704,0.11081645760394497,0.11202862489470475,0.12154967343306959,0.22235695509327327,-0.06298785152476463,0.1359013068936332,0.08148211145764347,0.2158824911835759,0.04553328664799741,0.1158125275044106
117.1875,0.007577413002936317,0.10863937105496169,0.12689017782855563,0.053307576072928436,0.05359283255140881,0.059117356138779824,0.012273126809342852,0.09782060483757064,0.043663301077252525,0.020151830617862906,0.24450731387721492,0.26793071173461863,-0.08815204148593711,0.40850275031081873,0.14692037164053862,0.11362441138247145
119.140625,0.05227816944425364,0.052135965381172496,0.15450122778180972,0.023021524654244004,0.06692632834360003,0.07447625181028207,0.09626722313471259,-0.005335866366868873,0.12781030129749407,0.10655864221459378,0.15587527253024833,0.12244798712082797,0.14808325819350854,0.014701003885342297,0.08776633508697645,0.056971701059481704
121.09375,0.0827825308741967,-0.032966436651462094,0.0395707222951013,0.06780153733294104,0.12165793081846414,-0.01670161743692062,0.0736060280272858,0.07998494578597795,0.1708996071611371,0.06884301873026004,-0.042207781444513225,0.09325842788455867,0.1280346850419882,0.10304106192325352,-0.10870413062567877,0.06520486154061769
123.046875,0.04785893917330261,0.13227516811058226,0.1278280261934094,0.09587459311761769,0.03957558942394081,0.14181577936558104,-0.02410238240361158,0.07173618370206065,0.03888995426136793,0.08473731562490132,0.16041764738077902,0.1777621056270649,0.010978781753640532,0.1242559091667067,0.1449656601488431,0.15812161190955826
125.0,0.03860868610357893,0.07296551409853476,0.07956711422635293,0.06583475132623114,0.03517158041090041,0.07325084953738037,0.10868851688080979,0.020081562413853414,0.09515521549709406,0.028673510251762714,0.22734421905166063,0.1644731459559107,0.07814928866820095,0.17302321192254957,0.2083511101161839,0.020096618174457032
126.953125,0.11186795231359592,0.031247662931877185,0.07855209951207147,0.04555962655387185,0.10312803938940995,-0.0020175980630358996,0.04896973492266393,0.0710131163297634,0.11638078852308563,0.11908002568753231,0.08750056023936939,0.2246169828412472,0.08025175786817672,-0.013567350353606365,-0.042659982209210814,0.07764079739735959
128.90625,0.09945661159823455,0.04334216996979483,0.07410749938077443,0.06982948121597607,0.04013095621453282,0.12240935990409617,0.015515674415919358,0.1379767231465623,-0.03976037008804088,0.09417361472626928,0.23520019951518029,0.11352927017215014,0.004086407560866777,0.2116990412764602,0.17414166052869368,0.14840676725008947
130.859375,0.03584244597526424,0.09770818553243817,0.06506816161904068,0.04423926958940448,0.048818690604410554,0.04652436173877956,0.09352737087929852,0.04365159208857608,0.17577066266682342,0.018276019395438558,0.20932595412507238,0.1995397186797559,0.06381924197000718,0.28335622708037306,0.22369844593898064,0.10541241436623228
132.8125,0.11178150758773138,0.025284816453362596,0.017000433581288728,-0.015768701413078057,0.09573387392057277,0.02560482655152143,0.14658077708636247,0.08797455053480208,0.2524415038112142,0.14560231003261845,0.16138296579727118,0.25322981726655347,0.1574087853485867,0.03714318451533537,-0.03915513745945041,0.08429817048600154
134.765625,0.0955714376534033,0.0842907486433441,0.05509764711829648,0.13231176511469123,0.0491414464567086,0.11918023407097343,0.018927559761064694,0.10338963240568631,0.057268734280066944,0.08766519222827193,0.21146178120335699,0.050383613929639415,0.01642159024761001,0.2757950309641298,0.12492566209596209,0.11558734779753344
136.71875,-0.002060620283087877,0.10848659366373177,0.10523852549142414,0.08746767286138175,0.04875087208850845,0.0883155841056159,0.030307053312033892,0.04313076744572637,0.06720578642235157,0.06299040093025422,0.18379648326716613,0.16412349452252167,0.07431937927614257,0.1911233015991446,0.09368629570400108,0.15026783532830457
138.671875,0.12834739731297953,0.0178173104025549,0.07888278596840627,0.010979898126885334,0.06431989375737644,0.028007320219286536,0.1495824693787252,0.0400695470794842,0.18332804076416687,0.16529913184021425,0.09457449770071563,0.2743890176244193,0.13271989584459154,0.02934532522899886,0.050592958759135956,0.0748418471155616
140.625,0.08706954826075428,0.030873376090257663,0.030978640121903163,0.10625470374227977,0.0364981972074156,0.04416950895805178,0.017745294871677097,0.07369602968568133,0.024185237556956167,0.010005304241397478,0.08671239901678626,0.0900828506956731,0.12724372034776366,0.1767059225507361,0.10149657614406218,0.20016304080296976
142.578125,-0.019487839416139942,0.09730033052242522,0.12533731979088458,0.09286780928366617,0.036171456924443554,0.09620110187427747,0.081599360587992,0.07806048296283154,0.13292064547282761,-0.04461095978573065,0.22895257817078402,0.15526422109067392,0.02050583376115913,0.2782775265848269,0.08284997230902488,0.1730771420195995
144.53125,0.051374598546358945,0.03552102593017224,0.10857596403708725,0.015255164136771299,0.08787758400115164,-0.02110599228393328,0.05559723419818979,0.008551648579575022,0.0982234803274377,0.16576647209931808,0.15064069760634027,0.1510300498495444,0.08951376725951288,0.10478648419162108,0.1220547095390393,0.04035285545538768
146.484375,0.11613747608752018,0.048542196065407064,-0.03338918868533827,0.056694437312378075,0.09099234206248429,0.07800788242014423,0.09970453780116184,0.08197937090382083,-0.029397855825273697,0.18443327880711657,0.14474108651547762,0.014646358819924578,0.12317770564956627,0.17651605399160605,0.07117653876222271,0.11216017725850316
148.4375,0.08684496686914937,0.15864666837573352,0.08994570485322502,0.09644460980204703,0.019324459150023333,0.09314132518595955,0.01900117403146086,0.10126080364606894,0.03178607610469107,0.07433610298782925,0.08740794333987727,0.021802350692947975,-0.03627529847051235,0.21810841793325886,0.0869559960081,0.06185002202190325
150.390625,0.0800265974321814,0.09306251014215525,0.09462712880439439,0.012178602931919235,0.06952159795107606,0.020660773699648492,0.11604324782880648,0.013217887584071861,0.0959732081339904,0.08504773315409934,0.14510790368646836,0.13690431042993964,0.2149229921489986,0.163266233406246,0.07803508163700001,-0.04559010834893461
152.34375,0.06339538125552553,0.03872143182446383,0.01618305068465558,0.06490168053351496,0.09822251482354437,0.0946977251582526,0.08280523481027487,0.0822475998114031,0.08306657290852973,0.11506423157512727,0.06626023695873778,0.10292852871015518,0.15552812124356627,-0.04861465408039218,0.09499057364635374,0.16047937908763407
154.296875,0.025853797858820072,0.0965164874994648,0.07944778050761894,0.07676115512528367,0.005656862415460321,0.1174866929654211,-0.02199752914002802,0.12615068806320234,0.07196240986574763,0.09914916374688779,0.22532887565472476,0.09059313677148748,0.05683441519892036,0.21373207712352504,0.1679512221527562,0.13392274413637478
156.25,0.0838816155373599,0.10318436777057853,0.10803427607807928,0.022634680087556685,0.05135540251333894,0.06884563493989776,0.0564102913471042,-0.0100406827688437,0.13576784440937273,0.14189229223274885,0.10373042217309053,0.22015075007849455,0.051771761992390024,0.11012810768906774,0.10808683408455916,0.06465736669153112
158.203125,0.08286271395013112,0.05022708712917558,-0.002529698951036463,0.1353224559110931,0.1296961018425409,0.02765907826155943,0.09940475833790022,0.060220104234524466,0.13962815822759844,0.11226046580017804,0.09842995182027119,0.09692125900654305,0.20572195844178023,0.09867526858724994,0.02002207188196941,0.0962695712929143
160.15625,0.027069570921755565,0.035986999843942394,0.04547201980566588,0.09046765319736509,0.045362477613268844,0.10769560391261293,0.021223105210742894,0.12192314277618282,-0.009724685158629384,0.1086302177833939,0.1355161879139944,0.0907411535548669,0.1091716535100237,0.08573303192735751,0.1631559394835698,0.12882205364392496
162.109375,0.07040613544432098,0.11512727657740424,0.09663053131949886,0.11902748568334308,0.04437856703262117,0.07653018736074224,0.08762138049405402,0.06267668723427267,0.17202799650256084,-0.01645849129299911,0.14065854395213473,0.2594471387876615,0.09610294932273858,0.15919766378905048,0.1446875442962238,0.03339940322591294
164.0625,0.15040895904326018,0.010054174690866783,0.04787615162874393,0.008811310551299507,0.11894974563904573,0.062000241261370326,0.06782391848941273,0.07254564392589193,0.13214484368907933,0.2081085474044379,0.023956331310417953,0.2283196559170028,0.23903897977053645,-0.007274871605422567,-0.0353660632316108,0.08881804640907927
166.015625,0.1184739120062705,0.07191550243293991,0.035510853518121506,0.06423249663839957,0.0646226782219593,0.07252843388387573,0.09589639477944009,0.12593079177022481,0.02119272224894758,0.1111036260516309,0.20485067694404882,-0.054236711149007785,0.030971461583776567,0.1724001829282763,0.09989723529487801,0.10830589855096717
167.96875,0.030199080555185207,0.1146346742690269,0.0728824663885752,0.10585061268108707,0.0031523786094971844,0.08249870723968757,0.04458712384729513,0.05720680016354236,0.14957218044739218,0.0020930488101532398,0.1974950968220201,0.1842115159359683,0.06918092417295064,0.14758878602569075,0.0855073181345215,0.10783076421416596
169.921875,0.10661870244661797,0.024953763388171884,0.06274274143295425,0.028964890640521535,0.10357368412578619,-0.06710781032110738,0.1134322337659058,0.0035006507801775845,0.19207271518607608,0.08627110773312174,0.07498317607538721,0.21330839589882644,0.17154609079709837,0.0460529815179489,0.030419503248934936,0.029197591367474622
171.875,0.06574076727861645,0.06548153869052163,0.028998019659545352,0.11618330056804231,0.04399697809746203,0.047649957521191756,0.041941737373342385,0.09607461333314665,0.0034961457158737066,0.09414817407233556,0.06991707270470723,0.01468642899542165,0.06163814051864435,0.2592317961884401,0.08452647659348606,0.12429650944015347
173.828125,0.06982911556162034,0.10067140511503005,0.10741205701781648,0.059801148942199636,0.050793451079315634,0.0931777538275351,0.0928595869332289,0.09793867887290718,0.14698969131724765,-0.02335687533416826,0.3012087057901808,0.1663551590604896,-0.02030066479642243,0.3017488518120779,0.07493071365448445,0.13079089352779524
175.78125,0.10789344058959202,0.13076671125783557,0.04882691491073593,-0.0021095404691113834,0.10837281118227642,-0.00562692019957113,0.08775448758901844,0.039520708313972794,0.18645897408302217,0.09033756495727635,0.12474855644570138,0.2517245123051719,0.18330184900591462,-0.0006712377697141898,0.23661974264052577,0.001291322759354046
177.734375,0.10495698250109407,0.09227355516023741,-0.00038004796846328716,0.11098730674406386,0.09356491860555569,0.07881872958270283,0.09530654661184265,0.10575127617367881,0.009006464463215888,0.13006895703490262,0.05179124345193487,0.0025733777428987407,0.14910725686425852,0.22520791459607375,0.036834575981305,0.10041858416015492
179.6875,0.05768527706156976,0.12601571234451217,0.1120257172640603,0.043937078104491586,-0.011844579471016413,0.11684297460145536,0.008143201734665675,0.06586258355904123,0.140330225174855,0.003406176800352864,0.24456629578297545,0.08068713789053797,0.00032251206253368966,0.16695982881613164,0.09204310661518664,0.18183269490994514
181.640625,0.03978243306703569,0.051148820084440376,0.06457522790930798,0.013936973969932797,0.09245697440781618,0.030517276933342215,0.14396767716893646,-0.0021568655596218536,0.16104539785840596,0.07462388445304297,0.23919711986568717,0.2518046559334351,0.0916492803065699,0.1921755034171599,0.18737730129410451,-0.040340830870077546
183.59375,0.13551243500212268,0.02955709450592764,0.024868884668057076,0.11749051301664948,0.13611371667523722,0.08623941232690635,0.12374541262587073,0.07247120950870771,0.06655655412917433,0.2235721291209643,-0.03723030496440692,0.1275955890581284,0.08120827275818722,0.05876551772909195,0.025266875406245975,0.11685475203670156
185.546875,0.019718541846077138,0.09570545022999494,0.029366117583425284,0.20886688396617697,0.060744057532351944,0.13428775313114985,0.018009560213478774,0.08657093458760141,0.09760073571316011,0.11489916750090001,0.233793148866294,-0.008785425627869693,-0.04418283517841851,0.1635226466568881,0.1355517264549945,0.13970201519101164
187.5,0.08236564941242203,0.09903833336026596,0.07018860719584949,0.0785925004137224,-0.01297798032871589,0.06594569168892415,0.12077898200011696,0.04385880139797744,0.1246765166831531,0.09400818156519836,0.17576452088985728,0.13373707061715556,0.06795391216600481,0.08504507342161317,0.13450161808648828,0.08997215535883978
189.453125,0.046271414530436906,-0.04105276874990287,0.04493136284086626,0.013528659761567354,0.12721750075365393,0.05479201701836928,0.05807783729760788,0.04211630138951063,0.12762589041134237,0.14120255525022551,0.07350858728428511,0.1887044388462159,0.10661286240632643,-0.08907449274660623,-0.00491648472634431,0.10345028615353814
191.40625,0.05370705200200527,0.08811706829089996,0.08508566533950256,0.13751699373995951,0.08485149464661904,0.12871034636186374,0.02893078923609167,0.1201044999966857,-0.02355282804724569,0.021528270779397937,0.13588741857232733,0.01999200292218716,0.0696012048258009,0.1200810767195992,-0.008101975308853968,0.1006173113521264
193.359375,0.017929846415977446,0.09002101294846114,0.15516392414607694,0.06258569787641936,0.03989721448699091,0.11405423344494532,0.05512439754571945,0.057640749854060855,0.0351725258059759,-0.002992654361277547,0.05260675886835771,0.06990222768348711,0.015778184637876724,0.08291838659616624,0.05639266809175538,0.10841081702091168
195.3125,0.07460226670846196,0.038224517006169974,0.0018910697305902597,0.0416834845988273,0.10386117019325852,-0.02118043081333177,0.17374017470096725,0.05324273677459505,0.05715876247896775,0.020402984648952224,-0.10088077952872028,0.10154202278525579,0.026401664757739814,0.1095765551541689,0.045372122550107245,0.020529345802894575
197.265625,0.06803309075763476,0.05816772424993159,0.05105322369681341,0.13330772897627055,0.07544707797127088,0.1177572510649558,0.09364737827522569,0.10902689846863071,0.002615991170021855,0.021988551597609863,0.050356597356856034,0.05127333283350867,0.033797272738403765,0.0502496808706786,0.003256836340865925,0.06453134962570485
199.21875,0.06875873320806128,0.14548443914123615,0.1132913613493981,0.07510862059312869,-0.023713755630282763,0.03856375834542277,0.00015630869514352967,0.1062876020125705,0.020998971755313067,0.006233105338646651,0.05116932037065571,0.0813073245124867,-0.006849825659161625,0.0677486555405573,0.030621918026335192,0.07964025182772279
201.171875,0.09737457730412322,0.05418002344961621,0.05986726596023622,0.011727601319872223,0.09501738819726707,-0.006201350151333074,0.11351338928604628,0.030751674810117282,0.03820779104806294,-0.06820614313028547,0.17520378711474824,-0.08378444790749022,-0.011169658075799713,0.05545431613878278,0.05739762757074461,-0.03237067221507848
203.125,0.1093624080932014,0.0927297992920675,0.06070276606799383,0.06393548171166473,0.07124480458956403,0.09134882081250884,0.046915655093162374,0.12922866367467675,0.05381737845355125,0.01863649475365903,0.07308636985619386,0.0571692445076815,0.05016358696220982,0.006556524475907871,-0.004962873586424187,-0.04635785256312358
205.078125,0.008863055999459775,0.10842586475650759,0.05892729562063814,0.0547538621942077,0.012613195677119519,0.11180058988310244,0.023267812917209175,0.10514140741851959,0.020685977673342473,-0.0803054104944608,0.010063057911555342,0.015792877821341308,-0.022255108101902548,0.01698774215316287,0.047999542360195296,0.07743302939628963
207.03125,0.07140387096785947,0.06460164002126026,0.10740343504792095,0.05154303845930633,0.08143494947090038,0.07068787375269615,0.07418572249187493,-0.004560953654097912,-0.018824073585611053,0.03672986783993761,-0.027452850649200847,-0.09086029621078236,-0.014798773970476565,-0.12192009095628423,0.007057017026202272,-0.012544231312962442
208.984375,0.09385279637571149,0.016760911766914896,0.013356973987619094,0.05219701389044134,0.1369441695909442,0.08320179807508515,0.028307404889454945,0.122382841923145,0.007282008792042589,-0.02243689628414125,0.03552053808393478,-0.06532284973805211,0.02362335175929944,-0.044424605138202955,-0.017415610479142606,0.00511094352116571
210.9375,0.027228146715813875,0.0776796108165415,0.07730315817016206,0.08748007884845803,0.05559967843866553,0.07690267386300696,0.045142019940295944,0.12971837714593032,-0.07593694936797192,0.03021728707825313,-0.06415956526721589,0.01725582348878627,0.01865099156837188,-0.03544920783773671,0.016558904794391798,0.029020112442880434
212.890625,0.09911171247495368,0.08175606331676459,0.06760599306545541,-0.04290804677863613,0.05513354769015564,0.05137529401532999,0.1055274685453187,0.03897884459305403,-0.054443930538063595,0.0017332909621726005,0.005964454691195128,0.004814794121770585,0.013219257423688995,-0.06678723109392527,0.002862408244504813,7.250861151521592e-06
214.84375,0.12392150774721819,-0.0034239109015148958,0.037987650651880735,0.06111893540925301,0.09507972509485849,0.10480265159222565,0.06596503872463923,0.042237086064006994,0.007492560792720997,0.011157667538018175,-0.027230376451042773,-0.04387905165375438,0.03782727057194837,0.060766344231501526,-0.014074402537168212,-0.0010732134979483153
216.796875,0.03655040520509747,0.15232206434723033,0.07065770604785902,0.09874303076359339,0.05230084433694069,0.05702154625807217,0.052784541084644525,0.12186902575680002,-0.055714274046991516,-0.07918696255298657,-0.06444430951613626,-0.026021609061152993,0.018093918202473063,0.08987315735124939,-0.09405998817130298,-0.02979612088229027
218.75,0.10337108149740308,0.12309389900253065,0.026945513626071796,0.05726678140160253,0.08838803399592532,0.0681270076121521,0.09436774121604138,0.0533279849200982,0.004876444729362116,0.03327769889521529,0.0039630794111877405,0.006785847365345045,-0.010663444406356469,0.020051756409670628,0.05385294454622445,0.04053623160392986
220.703125,0.1006180762783698,-0.05482452219445963,0.07313664262066953,0.034807890333038,0.11786487054197417,0.04114093492156238,0.11741904414625369,0.01297489511044023,0.005085987916209332,0.01045930410175209,0.033386791545116055,-0.031719059076138596,0.0016360880286854472,-0.02376790221617324,0.00163204129629015,0.07195792388586497
222.65625,0.028985673986356757,0.09814405778721194,0.08196386092608275,0.1576825112262869,0.05098104552289659,0.13918525030849616,-0.01161705621591853,0.08168201253999677,-0.009270685568068307,0.003107327861390599,-0.07191258900137719,0.02249376108304378,0.06267423285977247,-0.00519709448426067,-0.013804644291687018,0.055518807398999136
224.609375,0.01146586999475794,0.0693447188921562,0.11915950590127121,0.09045992763759061,0.004290565083816504,0.07455341684507098,0.09936401191724831,0.06611988693831843,-0.05409976582131819,-0.028981618533543675,-0.09563619866969873,-0.030963249327585825,0.002173172923682592,-0.01641564047620398,0.018752443674025232,-0.04069289881264226
226.5625,0.09506432694056523,0.02592160371395604,0.04482491309291647,0.06550517698636173,0.1015608634452175,0.011442348557780861,0.10203048417245654,0.06268168814053518,0.03270307278739891,0.038358535329142115,-0.14266823663470524,0.03284063233254128,0.038435295121920586,-0.02804088510480951,0.013791410785878819,0.045705530393694724
228.515625,0.07234776559858075,0.06511145161277677,0.05966020737698198,0.08449567909868685,0.0994792895282521,0.13927939201176,0.026911678479933816,0.016609769196977042,0.019782183010544983,-0.031142675384541296,-0.001099236003414478,-0.009918511045530319,-0.10090892989516029,-0.003441516889590516,0.004213691361239632,-0.014278820363675818
230.46875,0.017680057504858137,0.02720149405690776,0.10285910341098314,0.07565740908780555,0.013259438695548227,0.10599634169117225,0.07886847727492138,0.07423037516832634,0.031196659425804626,-0.040746027076330286,0.004302591016501552,-0.007558314760106305,-0.0032678580507189484,0.04011176034689779,0.0685478179291993,0.005799617298914296
232.421875,0.0887803449457981,0.05852406902628771,0.04360785553007982,0.04878495830787661,0.08970920812326674,0.00725773890034757,0.11927573656591436,-0.0019985020432098256,0.10549825791801026,0.04578961129589243,-0.015497662337501945,0.019921082880005873,-0.008290886598505662,-0.07859407126942677,-0.010062693713033621,0.020532363110713304
234.375,0.11920666392586339,0.07068604836907645,0.035777873499187256,0.11624979429082853,0.08210429134979724,0.096897567358776,0.03731377670106537,0.10192466880022674,0.01625806747397926,0.01580462290760067,-0.07588994004043358,-0.05304755648957002,-0.04021261174843963,0.039814932896817236,-0.006072887279518047,-0.044063547896674014
236.328125,0.03312651310342679,0.12476197255545174,0.07044337433306724,0.08801309716337691,0.0318624613372575,0.10257999627382584,0.0003788108015855829,0.0680555345123097,-0.09777641203351842,-0.01655961535475284,0.12330397866684403,0.008779562621537283,0.017035161789654158,-0.0006907849187233183,0.03119032963497873,-0.017473540157957834
238.28125,0.0953554123758703,0.06895122240960258,0.05382311268000755,-0.025933015691488086,0.13789660100937806,0.057018489534167875,0.10074063027887098,-0.03159953169957912,0.07042506445387313,-0.050294694109782635,-0.003425574840850372,-0.04369302600662145,-0.05278431562119354,-0.00650396257730765,-0.05687451872881227,-0.024182836725817586
240.234375,0.11738644213445903,0.004140501899605813,0.020609073918089034,0.08891142931918457,0.07769398135512018,0.06942405185025646,0.059690445676267564,0.11316783684016242,0.043799407009064754,2.201741079396557e-05,0.0845925496349937,0.0941932873994167,-0.0548846848238696,-0.023221720716744068,-0.018672580795986868,0.011810929407322082
242.1875,0.07267295615727572,0.08025006425066468,0.06790213363980271,0.05108911849453655,0.0029447518835592885,0.15594007683582206,0.011922010137458708,0.1330597744687243,-0.03976432358504383,-0.010465100738399034,0.011339115542222741,-0.014609612036071081,0.03765688694340781,0.020362350088876432,-0.007300570517549556,0.03718955943944466
244.140625,0.08543402329874022,0.07264102416632975,0.07835893713964827,0.04182631163067939,0.07463464555823796,0.044635036126622125,0.06333853791266954,0.08025442901851651,0.046150297736927845,0.04037337515091132,-0.05368537004611417,-0.026077295038750684,0.0649925017268757,0.028259719509727423,0.002672771117592732,0.02823585003856537
246.09375,0.10408164778610719,0.023885905566817137,0.04313872574785076,0.05310091506640266,0.10834870259670726,0.03938558370141189,0.07766802637030203,0.04155046827594986,0.010714549916422995,-0.05766589347453527,0.024225916590130445,-0.024047281166173953,0.018857530654273355,0.03994227387469682,-0.0029992095846525,0.034280018086660625
248.046875,0.014092399779537803,0.06945662290815072,0.044472988259390264,0.12115479230913133,0.046155014568800126,0.13471901101632872,0.022799079678375248,0.07504502373786691,-0.02407830868197955,0.01451887844642643,0.09718126874936209,-0.01981855511130754,0.005409979150554934,-0.016779699863000878,0.06429785286960173,-0.01850774339111846
250.0,0.0678996537380586,0.0878384776512626,0.054847417238915466,-0.0021460263806192207,0.0025054780480064124,0.004918327051863911,0.05511932314805097,0.027499365640786734,-0.0392019481052259,-0.013265847725849768,-0.028083216318854083,0.03529883709167571,0.003915495885062607,-0.05727691724663188,-0.04682067688351712,0.00015137352138211197
251.953125,0.03085039950233848,0.022069904462004963,-0.0017885634433284904,-0.01437318318654572,0.0447599797835459,0.003683771357775853,0.0623654177296489,0.028525863897187777,-0.01416593551584407,-0.10361161296465779,0.013437290256740096,-0.00799846849731534,-0.041623598292050694,-0.04308281947338475,0.0631358698910063,0.03767032984808916
253.90625,0.026911736839026205,0.0411510132328201,-0.052514367828642786,0.010737597459968846,-0.011563363001779774,-0.0036149646591980816,0.0224847352183306,0.05377947457261329,0.056033267388016485,0.07705202655231075,0.012454512559620741,-0.03478181061165936,0.05445827104964777,0.031062229253756214,-0.03945237488815135,-0.05515313747575021
255.859375,0.02613118626139134,-0.04243728734709537,0.044292104069754194,0.049912374727659733,0.003570923890960339,-0.0009013727807789972,0.05431052279080234,0.06157137036269839,0.01620646977086306,0.06677195558739812,-0.02708058564542297,-0.02308888679410716,-0.04017569641810716,0.06389098268868337,-0.048262483058139564,-0.06867223447774158
257.8125,0.00040253522257907635,-0.012892811670360526,0.023290301063217816,0.010294986920718003,0.06603367545558116,-0.004319662958625301,0.03704214431609959,-0.016560697637194928,-0.07798529070524547,0.012426219413527867,-0.05157438628993141,0.006819008064595205,-0.08525474246189844,-0.028184593542659002,-0.07213055122770316,0.06723791042748038
259.765625,0.03375868898172084,0.03554693443991428,-0.01628231469735423,-0.012878615595429126,0.016202073121092272,0.016347882211741053,0.0019588446682399195,0.048530126526955826,0.008153644342662199,0.018692820378713806,0.06706135044425637,-0.052609954780883414,-0.024547081797161065,-0.038764642698721104,0.023907285660954503,-0.046933468619198074
261.71875,0.006206021496592671,0.023614768650500675,-0.030363816727726933,-0.025139122104676257,-0.0023479885395836257,0.03357212015873713,0.027224482323269888,-0.009678893081232126,-0.056808271651127853,-0.029014003840297526,-0.007348779859756528,-0.06684444495935525,-0.048744691542315824,0.056957053077401926,0.043949055629379244,-0.0020750550169512942
263.671875,-0.012286024811299031,-0.04184885278211206,0.04376702959213216,-0.03791454454849662,-0.026223216932428392,0.007773425894942601,0.022645604292223502,0.038010360757818676,-0.07455851001541614,-0.03454748676340489,-0.02516345624847064,0.0011964097373142414,-0.02315726114866378,0.0157715680370112,0.03683161395901382,-0.019846494940314575
265.625,0.026541665238612518,-0.001345256025701654,0.0015154636989818172,-0.024438595945290985,-0.011108813655298725,-0.0009533382422287228,0.012007125159824095,0.017578223687884434,-0.08667932637419272,0.059532806385298516,-0.09599863166915451,0.004079845433929166,-0.006647038126579073,-0.14773825930721357,0.0967494303979764,0.09432747253396612
267.578125,-0.025993681589547533,0.03000199474090256,-0.03661159391746289,0.00013932628965122802,-0.026320560922353953,0.017913874687997686,-0.0012571736056466714,0.007662682710811486,-0.09785000056965258,0.016430748067662787,0.08038805179266699,-0.07251703111742125,-0.0648835908139188,-0.01780130443640188,0.009472643530341256,-0.083179421052664
269.53125,-0.011925753179406098,-0.007697105073702069,0.018930021724629903,-0.07579821299914333,0.03207882778479445,0.02975291772105907,0.03617415505940077,-0.013442556169785274,0.06100588535485867,0.012296872790852087,0.01031017949259597,-0.0765081460208534,-0.020922669255934376,0.08115157450788026,0.04466462593984806,-0.03229708397479707
271.484375,0.03006672549651892,0.0408956091883023,0.01941850211865845,-0.011321288208934816,-0.018657617609634816,-0.029423255600682877,0.01955843667554927,0.05211901148453694,0.0020250430197962,-0.036325528048499395,-0.10443754390486885,0.012977256234607824,-0.0898712373878179,0.01359881365803492,0.06713040977801474,0.02020282024385016
273.4375,0.024186222805033217,0.030923256454134202,-0.0008330267821366352,0.0318646059930113,0.0016997986814928131,0.005597259270937869,-0.03440611133630378,-0.04836316660320586,-0.028108270659818784,-0.023052444327398246,-0.02220731467226851,0.10815105199841275,-0.01906922826716983,-0.005021479307242961,-0.0073740108135355335,0.06372098413858407
275.390625,-0.019973539956708572,-0.024171675997827873,-0.026680240806218322,0.013166670441330321,-0.023773471672353254,-0.015650491849895136,0.01714563850352428,0.038225779919238624,-0.0056146778212900475,0.015954721067080506,0.0579596221886869,-0.021826965796954874,0.07743823242207076,-0.03248296219190684,-0.06716380352901548,0.00815052108113787
277.34375,0.024753176247919572,-0.0478903312148155,-0.01683929985686251,0.05477091814484794,0.006975959951778021,-0.0688144182701561,-0.021222671093412002,0.009732294119540434,-0.012374117877539711,0.005217027400535079,-0.01856633765453027,0.09452029552899607,0.00675618933073624,-0.016261314454659472,-0.008714801458648572,-0.17018822195697716
279.296875,-0.0014224113617759336,-0.011349676022540504,0.02195989196187425,0.06671709851212855,0.023612533221167707,0.005778215807384658,0.0025333399913962224,0.018565511677022514,-0.033796783542480544,-0.016525798517763927,0.006914873833284327,-0.005553762133486447,-0.03739176455716756,-0.0271319254819783,-0.05537546978167001,-0.04274428659745639
281.25,-0.009611411989670356,0.043691556231438076,0.04533974346038102,0.01948337996805128,0.06016421486702596,-0.035530846243168344,0.01763032442823331,-0.025393666263733707,0.03931434623974351,0.008917405211333568,0.06912792069548604,0.011376963351135909,0.02321293284136125,0.04128358367821059,-0.010600881006265401,0.02472341290819936
283.203125,-0.008943384687824404,-0.07844885957420009,-0.004806711822733098,0.018164848516276987,0.009017099221765152,-0.021552211301294897,-0.022085718904735714,-0.03570539802554288,0.03272414999979237,-0.004136863051368808,-0.050122493177045924,0.0064717635923376374,-0.012270915606849985,-0.07002528460043374,-0.011646158634974497,-0.04803346237266132
285.15625,-0.05082563818278645,-0.0094413925481013,-0.046235965932186804,-0.010141874581576374,-9.285900608969048e-05,-0.01911416831983027,0.004894563340450481,0.007366169518714315,0.037671177225667075,-0.005362685055282525,0.027110100818722168,-0.05370861585925606,0.011199067363977744,0.0027339593141398983,-0.02007734566492566,-0.043693945146949006
287.109375,0.03571185069559573,-0.04941639379285941,0.007762991161475818,-0.0166144149073842,0.0056976087743070315,-0.00020038929445342747,0.011824624343232688,-0.017018147600596147,0.042034966753952636,-0.028484966547829154,-0.05716812194914503,-0.01891804477372523,-0.037810997357301854,-0.08084771358750341,0.021681484478141708,-0.054559401258697814
289.0625,-0.031645668658290764,0.0034269713663585793,-0.0010548546049083242,-0.031345475484162194,0.0467102926548086,0.002924754844390881,-0.009975607688404824,-0.04431801022946986,-0.01728495446426456,-0.09635746824817791,-0.020875888057065767,-0.07204745903476562,-0.028047995623012675,-0.07035482451812829,-0.005935932050365548,-0.06644095200755237
291.015625,0.01385832250505369,-0.027810665406284595,-0.013290065897287068,0.024494795087034726,-0.04181591064575914,-0.007651378549746993,-0.05097962387661281,-0.007368830260478583,0.07872244887484478,-0.01798401121949477,-0.027508965095072647,0.04477456071118842,0.007342502213574861,0.030525821380803453,0.008047662807459508,-0.06310008845752871
292.96875,-0.03595910539918698,0.019028558147643166,0.042709329092665414,0.027635794548051255,0.02171642123387418,-0.01713307497263352,-0.001728323327774825,-0.027597015129099404,-0.09103950299539522,0.06874178546334463,0.05569413474068506,0.06417943587239405,-0.0016962643600026382,-0.01917739771194657,0.0022323991716781135,-0.04430768328549228
294.921875,-0.028594557725732515,0.06226380215563089,-0.023718296490464454,0.003643802602865809,-0.01833809119467061,-0.016186910087476043,-0.04760634089578067,-0.01265891067019261,-0.023934151210768927,-0.018549466030579317,0.06239497331148354,-0.08249152395539691,0.0031065810203487836,0.025667536233594745,-0.05769409186021638,0.030211540946485763
296.875,0.028282979748290627,0.007500214281415002,0.010920744608347664,0.009375171842274365,0.029024798017805796,-0.03358203017064979,-0.0403997092357105,0.002613914669451605,0.0394146088995871,0.014626057780743426,-0.0433403163812672,-0.03463973139943949,-0.027562472660208854,-0.06448387407658249,-0.08131947069864058,0.017051459323525055
298.828125,-0.05104706130498382,0.0014277999402929598,0.005408333437099115,0.0656214695133963,0.009941497285714968,0.028613119359830328,0.010444720895337899,-0.014947504727499207,-0.0301989458971496,0.03507838043757766,-0.03570520986357466,-0.12793106232828028,-0.006642472738543791,-0.03643129246873587,-0.06591976908136525,-0.023160344505990894
300.78125,0.030855235973676235,-0.011535579936151098,0.02907338175083353,0.04532778954524279,-0.02445796449551756,-0.009106937391469238,0.02853880900847096,0.03344584318180821,-0.0052084623340077395,0.009822871483354137,-0.019682832559141432,-0.0007325051973964413,-0.013929428105382072,0.01529282874976099,0.021758508552336863,0.025343391968726602
302.734375,-0.032347066518311894,-0.00454769363339222,-0.030156896512909207,-0.03844675787444009,0.05448008229671118,0.0344327663108628,-0.02538186097151571,0.0410479640831255,-0.043218163896632515,-0.06934306605174476,-0.014278380738314583,-0.0017923033367364188,-0.006596661718312075,0.035160330145786546,0.002868296430428429,-0.047352495624449514
304.6875,-0.044415937936855755,0.03215332659483341,0.022060746924000302,0.04414173059847767,-0.017240012487473807,0.003954563262391847,-0.03513470907851428,-0.04051720914556774,0.03465236358251623,0.02907052963273107,-0.07707971638770149,-0.04567763354821841,-0.0023302333428052904,0.08045560789806047,-0.009008982771948962,0.07074930896345058
306.640625,-0.03901384543895969,0.030594278549813024,0.059230971569012345,-0.0473814801496107,-0.039411107166541184,0.01945498313113565,0.013670073845784742,-0.026022018165832658,-0.017903569995649515,-0.01619490312940251,0.06321243000583011,-0.05215536809942408,0.025476367653284995,-0.0031809388274366777,-0.03792306022450754,-0.0017649785250986275
308.59375,-0.03700735381223641,0.0415566312787798,0.006075376488419287,0.04018091330724165,0.006088172820402177,-0.06075672400443471,-0.006592368920681917,-0.032577112405800426,-0.05582469640427875,0.014652286191566884,-0.06694038335630793,0.08481446485418803,0.03085157202463727,-0.019379662906175488,0.020217510134628768,0.012050426153702165
310.546875,-0.005522626186474675,0.05359524420178307,-0.006620294157920748,-0.026221730104425415,-0.04952977591325971,-0.028308816938753596,-0.012805361826214102,0.028779169000451337,0.0003678410536408298,-0.06920115075063014,-0.009363714022452624,0.05622631024334173,0.049097555970182206,-0.017134340326176316,0.024740308264833033,-0.0008309599814180674
312.5,-0.020756478643309813,-0.02400855667593808,-0.03428557283032693,-0.006632412137916574,0.005018557349246641,-0.0048051570003358225,0.022616164374659804,-0.010744873802339435,0.004242420412075522,-0.09068545811520329,0.08489810627922445,0.05087389402446842,-0.0077002422937228355,0.022805374530325637,-0.014820409664089413,0.058241524357817695
314.453125,0.01951622347486934,-0.00943996190237522,0.04129889348055444,-0.041285760008167416,-0.013827722616321689,-0.009363658357131118,-0.008210645182630344,0.006313136794812727,0.008016182265719606,-0.05183982678617272,-0.05154106651374994,-0.01592354857884304,-0.0114908897765261,0.004333603771455554,-0.005950763836192688,-0.020179748796644116
316.40625,0.050028124570293805,0.00917126073686845,-0.01086718827001117,0.05045426937914142,-0.001964614238931746,0.000870830415376868,0.008550231695749158,-0.02897623869257975,-0.023116594520838373,-0.009432704831532343,-0.03838390735175155,-0.11986739127737289,0.003949730340981603,0.010411343896234064,-0.043996560997640904,-0.03972925611694319
318.359375,-0.003761969145481102,0.04241000429117866,0.05505158438389658,-0.009346117420246408,-0.0035511985642704743,-0.03287020229107835,0.0018647476915280765,-0.01237068978310851,-0.05646397449181612,-0.06399158070344235,-0.013972249405130276,0.027745602500006513,-0.06694149340923661,0.07517168412264859,-0.02245869808375429,0.012432296471230649
320.3125,0.0467410846016294,0.001188747437066523,-0.000778324826047446,-0.019266278821464835,0.01680033651284718,-0.001195015882972525,0.0007276745004994835,0.019273655823088053,0.06707746090985246,0.04615347124101311,0.24786073807050954,0.027672310666288547,0.03860132664050466,-0.10371362649890281,-0.05744584920269895,-0.008137697788110234
322.265625,-0.024413992730790972,-0.035027670588473295,0.06768173184032998,0.03712480734310821,0.051302223061102124,0.07562339339631373,0.026623223795175423,-0.0339074368172978,-0.05377697124787419,-0.0037099314538115817,0.02429128489622851,-0.13450704711863345,-0.09433823640106889,0.04525260066995066,-0.016125522699765308,-0.03209837796536117
324.21875,0.051404610808410245,0.047162264049343504,-0.016843217497765336,0.01513336422966139,0.004688425079534139,0.009701191415738577,0.021027594586781873,0.01853296496896819,0.012651657780001704,0.05882003181812093,0.0176431217676759,0.03390159107420254,-0.001583826786412339,-0.12481775337559803,-0.023389800333559113,0.03870687321286609
326.171875,0.007408748342525288,0.013169951545699861,-0.04309814955615769,0.015829587167569926,-0.023416519560156168,-0.01545564705883439,-0.012861812860547248,0.008089417707549727,0.013002607010009206,-0.024175502645384848,0.18644815513500174,0.050251400740927626,0.012124612476626825,-0.0172988356866638,-0.06826400097207615,-0.055098150070190706
328.125,0.052747135969557775,0.006159251478590534,-0.03900323571917309,-0.011146986595200949,0.006861743079831129,0.004561503463165325,0.062906079740599,-0.042280627632609626,0.050084301322359116,0.07072452981213574,0.1128226330880773,-0.0028352154734384485,0.019886604271080088,-0.030958764002344555,0.009887519056161089,-0.04298821252655314
330.078125,-0.036174694811508465,0.00939139985946202,-0.04572039679822782,0.012432125811216837,0.0016170450046550618,0.008930268736043183,0.03635013364402396,-0.04152516595492237,-0.07211042465815487,-0.017839578729470475,-0.08885231135956956,-0.009209237150538768,0.013854798654418838,0.06748554851208707,-0.0003429127446754117,0.05198124257030495
332.03125,-0.010541049385170111,0.022603737971152015,-0.022940513609383196,0.017541996276065026,0.022516296503478295,0.032771191591265576,-0.027560284534201774,0.032793695632514656,-0.09763502308660461,0.02593736473553689,-0.1103203609175413,-0.08255445144184406,-0.034078531062546616,-0.04150291642412257,-0.01021460087948019,-0.010189459663747808
333.984375,-0.010364149189690086,-0.011163592195492306,0.013690790826751354,0.0124072143752466,0.008489124371919687,-0.05801603828377367,0.03475047049090266,0.06801948383289777,0.0636214210315482,-0.03449846959422985,-0.06314000546852928,-0.08792532308412321,-0.02152230304938575,0.06637419536118364,0.017683941428919298,-0.007032338438045696
335.9375,-0.0016418395432692629,0.018900287354044164,-0.03362667408119234,0.006330436179867674,-0.0009783717610647965,-0.010350396621398885,-0.01515721603087204,0.019107117539881563,0.0068625443186707755,0.04354596282633001,-0.027389042221884152,-0.03885857714623469,0.013944744209246414,0.10090603303785647,0.020867981607447576,-0.042003322321910515
337.890625,0.01332956890178007,-0.01636986570149674,-0.036177712034679545,-0.006415387054479716,0.024196810953377813,0.037276416332849054,-0.015136975239973099,-0.028894714278137435,-0.004765943383772186,-0.05393410239819982,-0.13028678343397151,0.06092856095120217,-0.011821475506238154,-0.12125651467726299,0.03596988035088387,-0.07117010884352709
339.84375,-0.004883904285882631,0.024820931650896116,-0.020479120648317375,-0.005111636539395292,-0.021487579301357834,0.027398933050655962,-0.0013316815737280168,-0.045832941379155334,0.02348533760301913,0.01703872314770693,-0.012889664941685416,-0.115770330228293,0.040293280156456716,-0.034840809608285506,0.005904891045233147,0.002912236048470556
341.796875,-0.04190451440714606,-0.0022994054870854805,-0.050612457939937606,0.018031659201320768,-0.023991236827853857,0.006510942843078882,-0.013039546834192083,0.057103690504423966,-0.022279643555260593,-0.03414698580851826,0.13680548684580157,0.04157362192425726,-0.024731566318911435,-0.028635618594203632,0.06059699386340678,0.01600621856388304
343.75,-0.031200329674410658,0.043868659361146325,0.008038156652798438,-0.04142126207245196,0.03597604973107244,-0.01024628735901062,0.01620990535921035,0.006452086930539702,0.021072604666289314,-0.05664279988978308,0.14182300686820046,0.013863348916744931,0.027074206937081274,-0.028438332031766662,-0.0035570010094138522,-0.029600262942546546
345.703125,0.01644004930329018,-0.009258209021998096,-0.012476637881345962,0.012557316010005752,-0.010524936093572088,0.019580513715371256,-0.01666311064250533,0.009884189229468815,0.012660832987292772,0.010737098365419577,-0.08320640668659969,-0.06443010177655287,0.04734009465725989,-0.08911485956456741,-0.019998018296624894,-0.008213422516942254
347.65625,0.021221853903954088,0.047031702011955806,0.007954946074159749,0.002293755438026506,-0.016203233415288235,-0.01570815792406649,0.0029359026558353606,0.020655130132737006,-0.004033309783074323,-0.004203352529665263,0.09859005424813584,0.03064917118212525,0.062092552445217546,-0.006888288154350653,-0.032422027831392086,0.015126988639563585
349.609375,-0.025852434865678176,-0.03197345616589886,0.02819853581278745,-0.016987234251402854,-0.017626060981030534,-0.03664467164130489,-0.03649809142390532,0.0030570072640599805,0.06349588932218286,0.00719506145604671,-0.07685154142420969,-0.04397747786302141,0.0021569925739792065,-0.013801320592800027,-0.03891499265245093,-0.012471496037575889
351.5625,0.030168297702724865,0.0036071722298562114,-0.0005640673141334291,0.03676823125092641,0.017933323988990675,-0.007096592496380169,0.024074968600363914,-0.03567100343062774,0.02773432518593537,0.03638417343678684,-0.014098702670454839,0.02969140676463248,0.06978898250983623,0.05086735065066035,0.021573863915765327,-0.02158649403173528
353.515625,0.03848109578012415,-0.022596793585695562,0.043889682764791604,-0.02433726609787386,-0.0031659111954003847,0.026823365767434222,0.005137277245914917,0.03916545655194894,0.007914847179248974,-0.006224319815867453,0.08009814203878782,-0.053656903183338614,-0.10192021930885034,-0.1310518178683146,-0.07168999854352467,0.036876481462204146
355.46875,0.004820769423994156,0.020425400926682553,0.00995594579041848,-0.011508669132687294,-0.01775840392855678,0.01915093424906547,0.00227018251057154,-0.007296175015973558,0.05076002595469553,-0.039036876059055904,-0.04377959704100512,0.01270735747196423,0.03889028764487329,0.08965283621921445,0.021246498792108565,-0.006820755909107122
357.421875,0.02705497050756656,0.0010534182425090883,-0.005312818401515347,0.07709970875405646,-0.03980739144609029,0.0009905340847680632,0.06669769909503084,-0.002653629217064774,-0.024744676918647898,0.06000616573614694,0.044159824909368886,-0.07826046773066601,-0.02610788491768383,0.0805852178479664,0.01566068443704295,0.02000839163832551
359.375,0.02711260113724906,-0.03924262269453937,-0.000216622227260079,0.05057477711502967,0.008934741787504507,0.00845691444035622,-0.004018020211081403,-1.971261466004368e-05,-0.0034406733264960923,-0.06167025315385853,0.022261029121388325,-0.1035837157427678,-0.0027948821121430555,-0.018655387611950836,-0.060418325602331784,-0.061536387966625784
361.328125,-0.023683431380038134,-0.026809013677856867,0.011550459293262793,0.016495536957255252,-0.04120828442477612,-0.0011523679847486401,0.002984439587379043,0.027701000250441532,0.029967762125417893,-0.01662000757646071,0.014242460512261804,0.06253059908498246,-0.0019669360429322084,-0.09483306067602948,-0.020822203100563347,-0.01564684433282878
363.28125,0.06331577311460236,-0.012266953522799735,0.001660434138527397,0.0022459057003204035,0.013333399665947307,-0.0011612993268036395,0.01773471503449174,-0.02303881941083142,0.07069087077738102,-0.0715435256586099,-0.02647975179716405,-0.08136916737024637,-0.029857653522884324,0.05305237293358046,0.04520040710038039,-0.04493241000496327
365.234375,0.029558128092021886,0.07833340429717153,0.029250033081425274,0.023995436756049926,0.023507352737980106,0.019548105216658635,-0.01225100593429089,0.04433164303203163,-0.028927805129271608,-0.03883588612304482,-0.03192084885492397,-0.06018521657612179,0.0025511406794597336,-0.007517868937788524,0.030247952259439218,0.03245473113154566
367.1875,-0.01671630823719285,0.02471795521451665,-0.03130208607474192,0.012746199660203633,0.024981767845668745,-0.0281590137229212,0.012478653176493323,0.015910219061007723,0.04293031778215264,-0.0007787460992539558,0.1408455393394944,0.0184657608641321,-0.002195356101521805,0.08726351751974144,-0.04236943125628573,0.020189999768069802
369.140625,-0.01085348154402069,0.01614557103303139,0.01942199065346425,0.032737131305804475,0.03862678507959507,-0.015563532789939433,0.025109151510735155,0.003909504184524159,0.0016189472428218897,-0.07017018940121386,0.0042050616852848085,-0.02384544255365987,-0.02685883896370436,0.04466045968835139,-0.06811144076152541,0.00858396430040329
371.09375,-0.003149189898937686,-0.03078131297262958,-0.05743631201558461,-0.01973462984936919,-0.009930164272485656,-0.014777438884846839,0.0037568160720783256,-0.05953324160237528,-0.023024472449459838,0.030572807332053347,0.049301523682302464,-0.059968519298889564,0.06737631248387707,-0.08177748142705263,-0.007977577193593136,0.03063039334866189
373.046875,0.004450885676298349,-0.03686230521347315,0.015942787747436404,-0.03962023239617237,0.021726438138621334,0.0110360255571338,0.010606317644492083,-0.0031142949536656136,0.021291849472166044,-0.03218570798609555,-0.06602416824471086,0.0005927977427031281,0.027600858864008565,0.08129810689522575,-0.01235017258028587,0.011368199260827641
375.0,-0.05890095566790088,-0.02655770586326209,-0.018324466074008387,-0.003730834029249781,-0.026911892867138406,0.005961620291790975,-0.0005597944870072737,-0.012015040848189992,0.0320781037260064,0.021637309291856338,0.12411862476136482,0.0689162971841005,-0.011368212549051071,0.07216037660846698,0.014941014544294232,0.03400340822561336
376.953125,-0.0017622899328718629,-0.02022240626088468,-0.038053704752924085,0.035345617823333494,0.025619786096528555,0.001998565642672681,0.001043862135512325,-0.0037951527804753245,0.053435423594520456,-0.0074210134605846925,-0.0036741222394577402,-0.04582129310280582,-0.06873832770690401,-0.02428179087631692,-0.004920690224506696,-0.0243229186553432
378.90625,-0.035017162047927916,-0.015060724661668756,-0.07243485752864473,-0.05490450066442276,-0.03359911811184923,-0.04085294067682165,0.0013442901944761756,-0.014823669992619927,0.0019165626812120693,-0.022032373074695726,-0.09407453993996236,-0.07273379614735817,-0.008401349116602714,0.004107444673503721,0.011931363339452059,-0.0711770850512463
380.859375,-0.01584085981429315,-0.051097787097340634,0.006170331940123626,-0.020871404758452183,0.011333093587459684,-0.004198350212518603,0.036756925698184416,0.007941743535460377,-0.0017393783454665165,-0.04745071566392838,0.008186454557080053,-0.05814299312202527,0.014842406170555402,0.05677312996525916,-0.034379583936786806,0.004126416390729983
382.8125,0.00036832706272510435,-0.007551657430775956,0.020977208607394455,0.00700150556605356,-0.008221911034047357,0.042817658052751326,0.011857723161315135,0.006367227533001614,-0.06395391218446113,0.005762478902413415,0.10792789459588746,0.02456662356150897,0.005458249688718631,0.07261688071532348,-0.004981614506110821,0.006025617261570308
384.765625,-0.070385819358219,0.011836344871238885,-0.009117441530458008,-0.010449944312978377,-0.018022619023655925,-0.0022838771712436045,-0.026555455010179578,0.03440059497400297,-0.04390584570053739,0.06844766523308253,-0.0340316843510885,0.0025498009232588935,-0.013971691639746387,-0.04068091039336984,-0.016026095285942746,-0.007070805971992429
386.71875,-0.015340730799052177,-0.03717797918969101,0.0031342427901320915,-0.05324456921733701,-0.01600961225449054,-0.01192790450916007,0.035864148645208975,0.002858845790220352,-0.005871013310773487,-0.05020961405524311,-0.022251623258009376,-0.03188109994101811,-0.02264308803693016,-0.046380216171930916,-0.007538403201691729,0.04113051738449218
388.671875,-0.03980381682259656,0.0003766539801869109,-0.004257798827724746,-0.026880043886860508,-0.031830600497375225,0.03981774080995858,-0.001159055884565837,0.056588628930429104,-0.038162283280107394,0.039821298939391,0.016230882410073914,-0.029873740786868795,0.09411937183613212,-0.1002733113141505,-0.029688262855296434,0.02827150763716351
390.625,-0.004609195006072322,0.0036027242996526654,0.01229305831384462,0.024196730654847575,-0.0047360606794437125,-0.014225006770457101,-0.028193211842346768,0.02054058673895862,0.09340435326919679,-0.008696599504989468,0.0636764083898615,0.028790707998553322,0.008127549330984182,0.06700926164765528,0.05135137046830468,-0.038179224890385
392.578125,0.010143229920944805,-0.0006473910112409681,-0.045044235616292075,0.004957158740902627,-0.03271269672062107,0.008338194245367494,-0.02497516451743751,0.05831345546879788,-0.05021606011413609,-0.025327348617403427,0.09871406292231655,0.05781564774604763,-0.004055174178539057,0.044871157741365436,0.06896917395821825,-0.05657495884011819
394.53125,-0.010841974399779668,-0.002724213178835711,0.02445049797201858,0.018711491226043753,-0.006654202586716222,-0.027758456487377108,-0.0017760816265261507,-0.03836226910627969,0.027008739765592385,-0.002593445957120156,0.03996626936180231,-0.02979361755387872,0.07363543587599555,0.01849932420262189,0.04700426559707536,0.031839807881714345
396.484375,-0.016065681214211626,0.03605449609936758,0.007147543284051786,-0.03978411306560289,0.030231879417856034,-0.011427848969565026,-0.016595843482163634,-0.037398120340354654,0.05243851707126021,-0.03657718342842882,0.06315574875255345,-0.02319619562398342,-0.025838954581117478,0.02683376492833576,-0.016627179113914092,-0.04962343796215214
398.4375,-0.0012304511923901943,0.05430796159580934,-0.004127136552635512,0.004363457293372002,0.031351251054847776,-0.012216993040296928,-0.0145744027451443,-0.0019827441848190223,-0.0011478780775302758,0.06530556196485662,-0.10836496913119509,0.035437324979174456,-0.03134752576601777,-0.022907724299013246,-0.02441720926905733,0.0328939317713001
400.390625,0.01218035744083481,0.00930068439204255,0.026103804098525644,-0.018103483450528056,0.026196805173383995,-0.0015579679484796645,-0.028740710661880997,0.019033828744257242,0.018256898940178432,0.09231116124150238,-0.057293560496296185,-0.06360784373345423,-0.039088159496507555,0.04818754045138879,0.04118629639834968,0.013089448143649656
402.34375,-0.03204303454684731,-0.006846623344637829,0.009162461963696838,-0.011534717031416472,0.011956028866227342,0.006811507355596006,0.03175385483725077,0.006584873593632413,-0.019683092061659132,0.021906795980119475,-0.01652486336555062,-0.0285963998128434,-0.016134583935595956,-0.09291963145119586,0.03563248127432119,0.02991649386163715
404.296875,0.019984342976000696,0.012818844653016397,-0.004914770895669857,0.019225476498979644,-0.016086232136480055,0.03418293136976777,0.004252012527191893,0.006053960319511346,-0.02119600352126644,-0.015806167766769855,0.050539595574083954,-0.07932895343336313,0.06888960358698347,-0.008213702242919847,0.09558694249710754,0.0014966235708906487
406.25,0.006698443888815164,-0.007974226913885362,0.033843444744111495,-0.009955333708731227,-0.005669149481956918,0.02509154578793696,-0.03545084784302905,-0.0037938378560701384,0.02143412271401128,-0.028580355900703458,0.09585334819412444,-0.012227428655247162,-0.00739816024126348,-0.13688179707666914,0.07060575967578954,-0.04239977835715601
408.203125,-0.022764550777435735,0.033112252016722,-0.022282479891945744,0.01709840863213878,0.006070467703531804,-0.033241392923926916,0.014033725398524011,-0.02258753621925087,-0.06067028786007159,-0.034154744706945815,-0.012628378074117437,0.03648542235991497,-0.024193935611435794,-0.051588923304201464,-0.041124772659324044,-0.024897041827490793
410.15625,-0.005202757558809676,0.07709334088898175,-0.017437039549344648,0.02728650872234739,0.047963965987273344,-0.006170187240942868,-0.006376926915380291,0.04599167447368103,-0.01170219727784766,0.009578198661860582,-0.050602744906725984,0.050222561710390176,-0.02915275390613823,-0.04305095317248434,-0.028202894841391598,-0.0026421233831697174
412.109375,0.018558102772347436,-0.009751489673068298,-0.005590003721907358,0.004616047872370668,0.0016879394390990994,0.02730080239497031,0.014089700749546743,0.03227335568228419,-0.04465691148622639,-0.021774993008379494,0.06341023308196915,0.059415793742365317,0.11682722974298215,-0.011963493650440353,-0.016335133106442832,0.015583880880239582
414.0625,-0.028451958403678135,-0.006045222255726052,-0.024867887490140413,0.051679297212745494,0.03503555076969397,-0.021517632053745867,-0.01264281541626982,-0.03043185698469772,-0.039259485335198956,0.048193103207389364,0.0013196903046039687,-0.0026538025383478375,-0.010336825754199506,-0.02797186209616727,-0.022153492707409086,0.02996889186518368
416.015625,0.04080216733861012,-0.0324400556689901,-0.01528903477785528,0.020772382995003995,-0.03870916657421563,0.0076059550875418975,-0.038003895764108495,-0.01680957937828925,0.01146773301988065,0.01307512816158845,-0.14463485277973243,0.050784445242205704,0.019845030524460253,-0.014440355470659812,-0.11566791290511455,-0.029555110343532656
417.96875,-0.013567384462918882,-0.017645280120697514,0.06767007745941397,-0.012189829583688272,-0.009926084629969948,0.03304240703288692,0.008522747675918539,0.024793996355806182,0.05482556430597953,0.005777497931282707,-0.09019682256101433,-0.025422683007923236,-0.0020668431812138205,0.06092468412294799,-0.03098188031667589,0.007563073761690148
419.921875,-0.04453629626973174,0.003068685635968516,0.00438447979962821,-0.012448914752133335,-0.0008847932143884609,-0.019715919374463806,-0.018616815969694573,0.0007502114579893456,-0.048671321212617545,0.012922238530123472,0.009739400036543576,0.014307650601923214,0.02998459293903516,-0.024034792808257467,-0.026961167261411272,-0.051968792775335095
421.875,-0.04131339553298099,-0.04242064109716799,0.0019911847353661764,0.08507013971096869,0.015367966047874592,0.04107215267670962,0.03646267424625756,0.03273748376153705,0.014549628111166368,-0.00024122867360349396,-0.008598551661296902,-0.09384727523803181,0.024636499735627065,-0.009541436022457475,0.06302657354109253,0.019882466483819895
423.828125,-0.0004236537479595188,-0.012758290557793615,0.01953992949191109,0.015607123465586643,0.019968568020037592,0.012930241055844954,-0.01229286232025656,-0.046525039092639095,0.05809599406142295,0.005667595961645507,-0.0419617690632502,0.07098436089900838,-0.005741366165270545,-0.0467894087980895,0.012714024328849405,0.008453166567139733
425.78125,-0.025393673306526168,-0.049219049231394744,-0.01751544477312213,0.00017023973456715827,-0.03294972509513033,0.035017249158012326,0.005233198820486017,-0.02816419896572337,0.010175173808082116,0.041102218034903465,-0.038278090674595325,0.07444958462049256,-0.022132470854183194,-0.025135186673305956,0.08255510513800715,-0.03938616871200538
427.734375,-0.07776665955526513,-0.017793183052775816,0.010577079194590808,0.04154196578587839,0.010487663629025184,-0.02397820462672736,-0.01097704882939893,-0.006177560164524083,-0.05612155457822529,0.05061703138730165,0.05565105061918457,0.018323306626121756,7.510865716496169e-05,0.08167135660014929,-0.01752681141579294,0.030889054384941387
429.6875,0.04558525838923422,-0.015505259957538185,-0.021701238004647825,-0.012087805224394309,0.03411645069554187,0.0016117483452308722,0.064874669864536,-0.007672356294595194,-0.03622935172015931,-0.06133309124962444,0.046236188685307995,-0.061684673396590076,-0.06754498195832885,0.1219717442671667,-0.03643966852874262,-0.00016794056208081974
431.640625,-0.019879307655769347,0.036791051638843185,0.020444155195197117,-0.024896335248867783,0.02837863620360309,-0.0021123417554047784,0.026920029927463698,-0.03657156460996333,0.041582394955324384,0.040603887429640516,-0.05519876363274685,0.049716457877402226,0.018802780685640987,0.11755783912274745,0.026870335566567274,-0.005350697306890796
433.59375,-0.023809625447153992,-0.053751009651012344,0.025879188790235076,-0.02694663719981776,-0.02986560345810239,-0.03132277035915089,0.025726642230892792,-0.04072871502052415,-0.008950241763446306,-0.039377665974486706,-0.0005033201079316983,-0.02741447654993831,0.051843810453393195,0.056189367089535966,-0.04011863793010582,0.027927877371427684
435.546875,0.020413537683180865,-0.018289392623984702,0.008877082146364007,-0.005237749024867476,-0.0634499835105166,-0.008548222775267969,0.026476827649121105,-0.026709580095117192,-0.03560083193016979,-0.019542928174268018,-0.012021425611020025,-0.07245902524332838,-0.0012588506440303325,0.039471658230195265,0.014277166064134084,-0.03791511403020787
437.5,0.006755830009239389,-0.008365254870585858,-0.001862310560994622,-0.05867114626372743,-0.005221479110436397,0.007588432065436571,-0.013409101867313061,0.02560677381479201,-0.03706443405834145,-0.010173013239034377,-0.11102599782120243,-0.03668042257292813,-0.0016466046527081539,0.0690748248270071,-0.013358460910780164,-0.0022709020973541287
439.453125,0.030690558424325578,0.004187570939766774,0.008565256802837717,0.02891719177154405,0.03546506201193959,-0.019677107798168492,0.012565011509675334,-0.06949828226528303,0.0637856941795551,-0.05823596338700125,0.08330055754047662,-0.04388996085807459,-0.0649159052268728,0.12915809872317904,-0.029043065571977618,0.014804517483908725
441.40625,-0.014982324506214001,-0.0091138222542816,0.0024935264825627283,0.004733724629041826,0.01128499048598897,0.01998965503254568,-0.039271445943876625,-0.02067488755215795,-0.05403541297742931,0.05514818845578165,-0.07377757595660639,-0.09266465506954522,-0.01691914748300885,0.03119860280996216,0.07069465195194269,0.024936174435437452
443.359375,-0.027085540704701646,-0.037931213028719664,-0.05791038811933021,0.051828721996027616,-0.024177338235532437,-0.055840465611591394,-0.043180284775152455,0.01606654991879029,0.022855243651384687,0.0592121215278196,-0.11838073485620658,-0.009339395465956383,-0.011896217533878668,0.06208903336312415,0.04979886697404186,-0.029611878572914932
445.3125,-0.040262139057609544,-0.009110547476920718,-0.006727368916330872,0.011540588592935249,0.02590408921122676,-0.020590891189419834,0.01726984934643822,0.031787327269337605,0.02671356582933248,-0.036005265168324654,-0.052879586663520536,-0.060428293981892825,0.03053753891576442,-0.025708500692545995,-0.008403871207974428,-0.021438766841512403
447.265625,-0.028495931706576688,-0.057017417595377165,0.04862023724913438,-0.012420114638219059,-0.0022116870577491717,0.01781523770670959,-0.031611622571904995,0.004009802746344557,-0.03485596801885372,0.0034547360753633834,0.0030753848891185206,-0.06631501409109669,-0.06510331833222308,0.04537358435911507,-0.010308034204579614,0.05207633988726068
449.21875,0.004301040473438979,0.01150724361328671,0.024682206571396106,0.0004967394926731198,-0.05265684033204503,0.00426889708329855,0.01959470185290395,0.04142196908688449,0.051475602858105964,9.689945444106342e-06,-0.1068477964631182,-0.038733687177635256,-0.0645850593705455,0.022826124232072913,0.07014570332410433,-0.04152830823486249
451.171875,0.020820321701874332,-0.009217274430797898,0.027716976225082523,-0.007718643270422854,0.03242840842131645,0.038323073996306856,0.009553035061292492,0.029674116489122906,0.03490540264579095,-0.009174227414774045,0.11528478710800019,-0.05267821699959767,-0.031498243283732845,0.08882077924601989,0.008444426562510068,0.03914025578787152
453.125,0.023489802773270948,0.02652048808191696,-0.04905831461558376,0.0190104693105965,-0.016379230950622336,0.02746681441755378,0.015625795867066413,-0.015434860864656926,0.027806615509797163,-0.031015715787089677,0.016371460735714976,-0.0036401464868618784,0.003322419318784663,-0.034775025175199745,0.04545735886457595,-0.025902016940369185
455.078125,-0.008783185676634987,-0.008895234637079828,-0.03627816170106161,0.06387051171303391,0.010235090634811305,-0.002031619233767332,-0.009285385117343146,-0.0692664104423478,0.0075455628615486384,-0.039088387450626025,0.05937994618438039,0.07201238441012538,0.028097747200297937,0.07559763101955787,-0.0424788216293806,-0.009288670457705898
457.03125,-0.03403822395397828,-0.001341096499263246,-0.0034909615618041547,0.005457704003467608,-0.05965612634371802,-0.05543252393833624,-0.014052192809597946,0.013055860855621831,0.05638645155483886,-0.06860001817768568,-0.029018173978099866,-0.06830445088859502,-0.006242670046118936,-0.05800836490146656,-0.016592489559208893,-0.03602272504672139
458.984375,-0.01873920331998765,-0.012139954577991987,0.023147360758561088,0.006878454247587719,-0.02066688923294316,0.05115107235968164,0.029775151857423535,-0.042504204049757716,0.0680194296404773,-0.029350798532569597,-0.08551924659036027,0.06293543774985595,0.07104805838183184,0.03370541484454702,0.031111873135893583,-0.04156824317374813
460.9375,0.023071401851543882,-0.034598645554777034,-0.016644946818423476,-0.012663813087558824,0.0010430216548119211,0.008533063500896968,-0.016220031447600834,0.02036444063771955,0.029121868168395026,-0.015735114116651416,0.03037034595177853,0.0921253918570483,-0.00628951868124495,-0.003449462271745576,-0.02452545810377991,0.0009814236418496062
462.890625,-0.002220211283152842,-0.006847164276624555,0.016961792104905057,0.006670154271299194,-0.00028999023384005085,0.017267513532741804,0.003327766671167519,0.015002109040594291,0.03556104156437515,-0.03506418356080241,0.021567407562906236,0.06995297959247232,-0.047520843678335166,-0.09525127824691709,0.0063393338299981665,0.0368333476664333
464.84375,0.03930525694672544,-0.015635981104495527,0.004058738127345395,0.02762912273173752,0.030913718874925503,-0.001918937643738325,0.0098926752676714,0.008276337434049449,-0.0071905269336860235,0.012501807082807103,-0.0018216142026575492,0.04453248810966607,0.0466090371454738,-0.09107127601736859,-0.05046009208505774,0.10608975756057268
466.796875,0.006806189920711704,0.045599809098601306,-0.0197556939048481,-0.05085027755882387,0.03219771991020585,-0.007782955543055814,-0.05152954065300909,-0.008722798556788801,-0.03599792714146614,-0.03215701694851172,0.08253441472982025,-0.04761945570992926,0.00584142748454336,0.001224009777912123,-0.024220977586153755,0.0006444489264953222
468.75,-0.048616720959438565,0.017984980392832632,0.019003642515010723,0.009556722464352742,0.007112306728028529,0.009712594242473423,0.03158445788829533,-0.04874728276599742,0.008021424580286134,-0.029831561916958002,0.013780519779411336,-0.013510488890833264,0.061506863331225264,0.042088674735104775,-0.06936854839260108,0.006663862641988977
470.703125,0.03209630463443704,0.002279168319942673,-0.003196108178713778,0.013072308402344001,0.0003883941685316976,-0.003625129562762546,-0.03472239665766274,-0.03483396186341963,-0.009215200891037716,0.0030177809262497924,-0.05418379739254912,0.07336695408568306,-0.017844725758023452,-0.04391734375825142,0.022542780765514962,-0.03202850003194117
472.65625,-0.011665164994695212,-0.03923453443607159,-0.0028350300953917025,-0.0037991087401856197,-0.03808003805267388,-0.027614313743254154,0.009652910296138328,-0.018784406931745854,-0.0017865019738528083,-0.011370375403868102,-0.022864502937195066,-0.056844881559071914,-0.015488189476153226,0.049577363865864116,-0.06314294087906866,-0.014819270149083092
474.609375,-0.00703544672652534,-0.03901827449209037,0.03875918701709847,0.010503509204731762,0.004201399150666143,-0.0167473306334244,-0.04064163931159736,0.01911268641746182,-0.033560656491102264,-0.01444844109533142,-0.019231751328288197,0.08519201389987247,-0.014395099137237835,-0.10000189521297653,0.021748514373581215,0.01975307158965411
476.5625,0.023098141043054864,-0.005580166925161284,-0.013098213223711274,0.0355704321805211,0.02217509078431045,0.0396079936583985,-0.01796603826694922,0.003061970157698496,-0.022646164517946366,0.004229590715178936,0.043905388397985065,0.022011245443257638,-0.045178444928932616,0.06745834896211995,0.03332722906363933,-0.035816064720960814
478.515625,-0.02478478521829386,0.026776612522244315,0.054194278766731836,0.03319934215108741,0.030324209388056113,-0.029856041811194695,-0.008804121192038177,-0.035390915889239226,-0.0870324223882698,-0.003484638804294733,-0.07825048068995916,0.10424042461286212,-0.06599144741012337,0.03179673917103493,0.027384183867753376,-0.04267807806242045
480.46875,-0.004203558927856692,-0.04277385304227519,-0.003010285730424416,-0.005057307641386208,-0.02992407989174035,-0.03611511929883566,0.005848867368820701,-0.029544479525187437,-0.04369835698027008,-0.030228037958399914,-0.007937416747538105,0.04534766827491912,-0.012047855756858586,0.05840294663399623,0.05684512246275669,0.03571724968173017
482.421875,-0.024856490286178905,0.010133803999732691,-0.02761782132066698,-0.0060029755892083096,-0.002686801328443548,-0.04136151360879422,0.010219705397628401,-0.0342546817549806,-0.004606460980791652,-0.060420975850896855,0.0870648496683252,0.026824784495223387,0.04308940143290418,0.09297840987071598,0.019122622878054853,-0.020550370657305646
484.375,-0.02619730252082206,-0.01460578755800836,0.03851842783575081,0.03414264782590799,0.014270114250659402,-0.022471926985754138,-0.01686899762262169,0.018348899101477984,0.04788892255217462,0.004606802950089205,-0.01175856367212447,-0.0718171454005896,-0.023434174345310622,0.03176232571969842,0.0021234652990138147,0.031324156889544985
486.328125,0.002000138488153634,-0.002650019791099152,0.04053665118721861,-0.004637611370329535,-0.017908352661297384,0.05185193182169053,0.004747763931486972,0.01203620306779959,0.027722260136943927,0.03446908550670919,0.004537139245484451,-0.00035470811221917473,0.06558654967421132,-0.05144164432044181,-0.0461014430561076,-0.02340018419225089
488.28125,-0.03737966399735261,-0.022164464967377038,-0.014871420252599767,0.0488592032708556,-0.06710064647708942,0.04806765147280935,-0.019396730732240162,-0.01442644857606808,0.02898912151880649,0.04106094215158085,-0.0027764789115399414,-0.013080294521398729,-0.04892173193344912,0.09270655378527248,0.015064137399079268,0.07204833969064169
490.234375,0.033693650714768764,0.00195415804238751,-0.0329968978012932,-0.0446552270560795,-0.019086686463031254,-0.07245065019915063,0.0009510143671885858,0.02300550817181134,0.04525321607415012,0.022807967095577895,-0.03008015209312736,0.024813898107835262,-0.00952724857009839,-0.027087360037147956,-0.01896670800012642,0.023408529352730065
492.1875,0.002369150331033937,0.003992242795278295,0.046818677960516024,-0.019360320386097446,-0.050967435254212275,0.00205344129833508,0.009820260997622213,-0.04905616215116933,-0.020320621596084432,0.027791913238568302,0.05890664376151738,-0.0729285064589181,-0.0027739147768703182,0.046823505037800486,-0.025532205891023226,-0.06494293257258067
494.140625,-0.004233794618410366,0.024559141181713335,-0.016995610929213468,0.022235729397904642,-0.0405358498933391,0.013941324318859312,-0.024417662653766315,0.016709550311391548,0.0776362159886382,-0.022516325717599234,0.008612628688890647,-0.08187811994051822,-0.02854850610673995,0.02240810551364443,-0.006928668835152767,0.0887235218319371
496.09375,-0.09477412605411298,-0.030340039570913913,-0.004515932127984216,-0.01713293033919059,-0.04084131397170216,0.04823763289834084,-0.015604886186260304,0.0017275435602868011,-0.08226625105060106,0.012136994222480744,0.03070712516939849,0.005407122070991809,0.0028605741198116804,-0.09629649116800759,0.002215075196673052,-0.016860375510036493
498.046875,-0.04844732755155352,-0.0027432395533277926,-0.02946178814612041,-0.07470618605332487,0.0006741833276610713,0.02875675981259007,0.011320919369130438,0.014657727097051175,-0.021695906872223,-0.05558229136323286,0.018783329790834778,-0.004068978712734978,0.004585940046390135,0.008260371476495115,0.018778143208779664,0.035951915796705945
500.0,0.016061444978698776,0.015100834018085246,0.03034905747334976,0.03814088144450098,0.04152936556968333,0.02072703018826227,0.04682195932244203,0.00725648092013593,0.01878397702502446,-0.03802862880399548,0.08768277305107954,-0.040018235008871736,-0.02059998867382519,0.05792115104182684,-0.013672083459981997,-0.0007440440849633164
501.953125,0.015174489885417862,0.001051256473052092,0.007939707812700366,-0.008692276595969366,0.009645967041391862,0.0044922210028484465,3.059914004416898e-05,0.026463754079744408,0.03956548732027972,-0.0876024186497615,0.039034684551602875,0.06127417365854007,-0.021615446798721343,-0.07769482935725791,0.03804681262309691,-0.03280872171472327
503.90625,0.012867760840848492,0.06363473050536224,0.022535179340808176,0.011840525365095816,0.01045928675567782,0.01139700318323987,0.0021119794557587523,-0.011602664744516392,0.050714747978595195,-0.02644942981989241,0.024503248076658005,-0.005673622636343874,0.002302229420385925,0.030244465715839407,-0.05467146276219159,0.040874633017829176
505.859375,0.014692814518686299,0.030547688118550975,-0.04490862476798625,-0.05310983552162484,-0.03241544666112593,0.019178380053714486,-0.0005939527392069025,0.008068153482422047,-0.10100883967144036,0.012224329641401995,-0.023156548245503818,-0.04622040522775669,0.041184506783139105,0.04640437926275919,-0.06329254200184618,0.010830493207320237
507.8125,-0.04512382838773393,-0.010419996962342725,-0.03273859306153936,-0.01567450425291935,-0.03920262007432549,0.042350202222834726,-0.030894135898755715,0.027998611632953353,-0.00030615790770405503,0.054966794743744274,-0.04946056257691015,0.0283018768205279,0.06420269549886233,-0.02174663864382655,0.033055373647051245,0.004488881688920017
509.765625,-0.013294891155875111,-0.002366440783225362,-0.02596337898402859,-0.013026872360568677,-0.024396341632961387,0.005223630628768927,-0.018680942414455393,-0.006897397183893528,-0.05734114924408022,0.002670233812279317,0.07528670020845699,0.017813880898146044,-0.004175961596445793,0.03559748377398914,-0.012373379374252669,0.05316679818832115
511.71875,-0.05170535102908839,-0.007865913924032445,0.010074157285611318,-0.005868230502449135,0.041753603869300306,0.006411211526221337,0.016364510541822284,-0.04825160991798506,-0.0765102844270056,0.02354570426870216,-0.03460374605176935,-0.06624285128573162,0.06876865344502905,-0.03223216154900401,-0.03450198082560818,0.042653427522394934
513.671875,0.02581714634758373,0.05156545442425619,-0.030720346758101265,-0.0003381208782568314,0.014977563392397928,-0.03312969060047942,0.02217365127574376,-0.013839585031590523,-0.02899808787577785,-0.018845623749287027,-0.038493863068215256,0.059195416786862645,0.020140118264940145,0.08991084581948755,-0.025742431529845834,0.029837234001444935
515.625,-0.03762800431121272,-0.008104423660609783,-0.0014850238556050495,0.02868685470648664,-0.0037922841634154907,0.0028569980995850485,0.01187393087239822,-0.009251979752902694,0.0002991872889091682,0.053911760102827645,-0.021294830412337096,0.0032097914858063743,-0.027729398110492482,-0.0007510117070954302,0.041262363823439556,0.04503798441696013
517.578125,-0.011657991975445828,-0.040242393939973566,-0.10336365997243979,-0.002650950941019576,0.0442699181031859,-0.013155919681298303,0.005788578129840203,0.007386294821531825,-0.05970122689962492,0.027941402172501177,0.07473087750854103,0.03736755026696547,0.011191708579763347,0.02943907654658779,0.02733897301554779,0.021461514250191344
519.53125,0.012192056088017713,0.003493940027387972,-0.009189811194902135,0.011085752174741205,-0.03008201192764657,-0.023007195084817838,0.04036512390074895,-0.041035287819317263,0.06377045557422005,-0.02059034086728739,-0.024739018652307543,0.0060352553510329265,-0.026702331897345225,-0.06353454526334243,0.06448709589361915,-0.03282932312254366
521.484375,0.06206160559349051,0.04406050918827248,0.0015496769577625685,0.04173181924772306,0.028312922881492234,-0.04247990387926928,-0.04150785347154753,0.01214661347169706,-0.07419485068623628,-0.03282624463057494,-0.0007600901632258007,-0.061118441869518106,0.0029765215696524296,0.04618905444791593,0.00501040074246744,-0.05078535767248903
523.4375,0.02863129542749783,0.015433424090095212,-0.005776911568849725,0.034339306517924426,-0.0023066538654376114,-0.00685530785195998,-0.009245631925589326,-0.019870180775119102,0.02223837693795876,0.0018660580874866022,-0.057396028391398984,-0.0920257832909455,-0.09334483174172327,0.04603740234209627,-0.02256846982585587,-0.0028782316397415963
525.390625,-0.023522827332651767,-0.008338666955109375,0.03844976911091955,-0.00912792992229277,-0.029290134273707937,-0.014510183985635012,0.01024244458759375,0.015592688137653063,0.012008141008430371,-0.018897610625866097,-0.015351773491250519,-0.0025754370678376668,-0.00012953867740201247,-0.07917439547573621,-0.02544210279091143,-0.015788394262430946
527.34375,0.009225238399303514,-0.009076072834749559,0.031950944818643974,0.02384382876795461,0.03452534123209658,-0.0018803427786401646,0.01972165331745042,0.005095493422434425,-0.04107546180037776,0.04542041246119232,-0.027423534530095623,0.01314760407198964,-0.045019348060049355,-0.015076908393268277,0.01998320727953535,0.001873213745105215
529.296875,0.013141003429833487,-0.02139588335191294,0.018575198403045366,0.03937776747916068,0.021311345669001558,-0.051234035408136175,0.04817707274167602,-0.014424784740186436,0.04142876527824594,-0.03216448343084909,-0.08203635519515425,0.04114575902170069,-0.008441432455098388,-0.023868284457274052,0.029478961687439617,0.03567635932070841
531.25,-0.03220207641630374,0.014968119876946824,-0.0002732255605632991,-0.009279102356684362,0.015421898033537005,-0.09891014969990822,0.0494376414056789,0.0018907748928396052,-0.04107496730176036,-0.08576245524537329,-0.07696314923168496,-0.10070505989441199,0.026174445911010955,-0.03047971320848001,0.022279001059224274,-0.001977658549286591
533.203125,0.04870289291767394,0.0345615094484548,0.044443010223836614,0.01752494547836574,0.008792815119235275,-0.03833137576681446,-0.013291573598098816,-0.04977288085414274,0.09485681508796857,-0.034925367249839856,-0.041202047733311625,-0.012606345594315938,0.008928185768932171,0.0022303516864786116,0.028588983464184585,-0.014047986916680265
535.15625,-0.029017277228435,0.03459671538218638,0.012257113140120977,0.05870079763646542,-0.017707534451165657,-0.010443846937710924,0.022477769907473934,0.0038536488600630723,0.019620065209894896,-0.0209452597909233,-0.017734186343896154,0.057231199769948296,-0.007684707035565797,-0.11236197409535045,-0.0033104235760633783,0.007972688818174598
537.109375,-0.001477608331003303,-0.00748318040643847,-0.023933394114305933,-0.03681601734697604,-0.032186323432340826,0.035381982558785545,0.014476742650813402,-0.020331268465118964,0.039444759533162656,-0.04167356245676471,-0.0738951511831267,0.03623102062201531,-0.02617579467701831,-0.11262730954412103,-0.009354914639819469,0.02678718720338636
539.0625,0.018741399504950143,0.0014297469447758454,0.03981784504322929,-0.020296312989466932,0.036513925758381194,0.004230832764809646,-0.0013096907772866834,-0.004841774308276163,-0.027082727074046443,0.0436947942658376,0.01890794920823789,0.01813333165609993,0.026464905587209875,-0.04305492260514848,0.008287060929147255,0.07323942841621534
541.015625,0.0433722465265346,-0.04355727914347657,0.05847780075768828,0.03660302033291383,-0.009875787590524885,0.013015032735508877,0.03882458302226277,0.022764483049209392,-0.06311973566326166,0.010684182421891435,0.020441406811786147,-0.062135640483341484,-0.014128197043808105,-0.021314117969988354,-0.04824948774706678,0.0034307094015404156
542.96875,0.013897097712701395,-0.004295797284569367,-0.018038782815054596,-0.02640658101659908,0.05337905153621563,0.025010453736011722,0.0013519820630578515,-0.03166811818507544,0.02302966208201129,-0.05166179293069891,0.0971510180797669,0.012142243330145882,-0.03596716954060662,-0.11076306095066499,0.0811403332118114,0.037940376301219284
544.921875,0.001485820253458795,0.032502017826005765,-0.03410578063022426,-0.016999774140032994,-0.002904721720384091,0.03133550699494928,0.0004313370858709773,-0.0011226278169751767,-0.004505085052064569,0.03725797580216532,-0.012606743650570714,-0.06190583187756228,-0.028092134146187588,-0.03131806555506797,-0.03888915530612458,-0.019556063268411916
546.875,0.04611118928656723,-0.04420388985599245,0.0010646820778301494,0.009549732413486656,0.0033336660761675322,0.020565392819030803,0.027541712516045532,-0.018630578489407225,0.006175570362624629,0.010173071372210473,0.1141164848908292,-0.014689847489288269,-0.004974725915178568,0.10173144733394762,0.008284036729592962,0.03491131229875313
548.828125,-0.037562193357997306,-0.03651736740567497,0.010728464728231125,-0.046835930223108925,0.0279422487200459,0.010154499450540783,0.025262967038163324,-0.017533837422254513,0.05774284974617445,0.013806592801037035,0.11931680675522174,0.035644936604825886,-0.009256875063419368,-0.005929383573801997,0.053693724888741065,0.06941965331786557
550.78125,-0.02001950910399152,0.005371045415862784,0.008599591679750945,0.004700914643485664,-0.011220624728861796,0.003263925970996401,-0.009896361473846092,0.035535968305057314,-0.025917786702449715,-0.04653916393537328,0.0726613181621534,0.06823408581597235,0.026056244084423738,0.10247556566600058,0.09067905927096742,0.014196432582069256
552.734375,0.043333413403912516,0.031112023132090175,-0.051329946302040415,-0.04230303566346819,0.024996982744329904,-0.0417976232486988,0.011391789602045014,0.018076711148713523,0.015290469728799487,0.09441226187470231,-0.08596167673533966,0.053231038713376186,0.020939843480142984,0.05730183993033046,0.027070456001428947,0.049369827322559075
554.6875,-0.024619123841645593,-0.028304136163567507,0.01301253991846838,0.01044256064646395,0.006336537310306946,0.01333863659919915,0.04052511954687819,-0.015710081387620606,0.053502817288004836,-0.021778810622838846,0.05030257817397156,-0.01626337008181953,0.03280520345047212,0.06457194453937581,0.08433016706041414,0.0756495141092544
556.640625,-0.005545293498064226,0.03025718502842595,0.008003183069087058,-0.05464116331205241,0.02408714709684237,-0.035730345913547235,0.05019210426455314,0.05389800132076913,0.12236850171981935,0.020599240222365436,0.22034666633113303,0.15271199966018673,0.021719186003850102,0.03162015883491687,0.07159350849729318,-0.01109729919352665
558.59375,-0.02758026154905958,0.020835194824843292,0.018137474792317566,0.029810783573467246,0.03037944504782141,-0.01768221442329293,0.012893360882156786,-0.04464472568371478,0.06839820598914512,0.09096031562485957,0.03621409036434922,-0.031776740844539256,0.11352222124316567,-0.03355063807463385,0.01477530067606404,0.06243555073939888
560.546875,0.011913014149088625,0.01643453080666621,-0.004831015795528559,-0.010359294901798953,0.001520284986278203,-0.012142371450428914,-0.013809752662097163,-0.024288913710560772,-0.05167766801120421,0.054475194931177584,0.14786880628802018,0.031054463990228168,-0.00460046838146623,0.30002615137709043,0.13959213308188784,0.13421475063633723
562.5,0.017485246739054036,0.011706295027822196,0.008093759192516719,-0.03148491760087469,0.03219342140665626,-0.012911661013467624,0.05249840853066382,0.0065667721603505464,0.08758972318968827,0.028791491903521538,0.0604358406397157,0.14214157200281807,0.11624602751036271,0.07267084948916268,0.05330947381266306,-0.011607022837031383
564.453125,-0.003508012955058279,-0.03956788573987185,0.018801713800224218,-0.03402688978874806,0.008209638935417823,-0.007742620912369866,0.02793768824143354,-0.019226705707756954,0.16057098601833614,0.06728456928499069,0.013873231958025535,0.206169084126059,0.1529423477207121,0.13905536881407016,0.01626065469402433,0.07263411354228946
566.40625,0.04129329905217873,-0.0015771144038390671,-0.015474022167209101,-0.02182613633590554,-0.05703188770386363,0.014000367432408263,0.023651437187990166,-0.006270750962739726,0.0015861762415725611,0.14250580817577663,0.17859870242851208,0.09609033558141086,0.06918799208006318,0.07887604371674738,0.10269746627368863,0.13013229068930382
568.359375,-0.0038030624555333518,-0.025607161345518593,-0.016111858970544554,-0.007489934754636487,-0.00891462558710209,-0.0038989401444892357,0.03461506672330933,0.006676752461590618,0.10604401723317612,0.08797410992879544,0.29786749957809333,0.2097377086100649,0.07827218879958234,0.16385235076307775,0.19197157885286423,0.07359643015281422
570.3125,0.051106180000166423,0.046687301461458386,-0.03349198888979946,-0.039110302682771644,0.005083852956613063,-0.002685467892393645,0.007230217798996579,-0.007576530358225613,0.1511719325016032,0.2010358289813068,0.1547792771605879,0.14128825275474943,0.156555366037808,0.07037429363067389,0.020274078936125588,0.03015073561791102
572.265625,0.011362063926761357,-0.015303304349962863,0.019247247519594876,0.026813040924372613,-0.013467708266208392,-0.030980650832315885,-0.0021208007996027134,-0.009540470963222495,-0.0015032573161209081,0.04827308124729775,0.19584094339760694,0.03771763001831729,0.04747015940208636,0.21807998273724782,0.11565869468615894,0.11399454714047841
574.21875,-0.01849613514446667,-0.00949149799998507,0.0046132591503370785,-0.01861579112026295,0.008674907504257073,-0.012665855727121577,-0.05848953894296319,0.01082905209494091,0.13345131627745863,0.07969402352873273,0.3057489111147912,0.1786625766363686,0.048885107543765134,0.11600778203349403,0.17233206388458427,0.08491599106350116
576.171875,-0.004666839288705082,-0.013934897019210322,0.05587939489683166,0.0028105653970678687,0.0295941970159556,-0.04598469165905127,0.010498033759130871,-0.0617148661732084,0.20285526677038127,0.14040126423516722,0.11587551205257185,0.19764669728468554,0.17551269311660583,0.15650087710750607,0.050239512053294064,0.0461121048049534
578.125,0.06062202656266811,0.015153561009380987,-0.016022500773531793,0.008624491930753122,-0.03263229266034287,-0.033751151046979296,0.03489078164919247,-0.03037641462839339,0.03608379905915074,0.12445750731538312,0.07761013723554055,0.11710666033773938,0.07279494748805779,0.28610006309629865,0.06005647542361318,0.1275044616577919
580.078125,-0.014909150197367356,0.008132187584270511,-0.01758061575720274,0.00945803863804855,0.06311202403584103,0.031863651263012584,-0.015399768723129046,0.010159037677331706,0.03016659911129995,0.05125606714408231,0.23372409851081571,0.32236969491971207,0.04943739223651866,0.15438701377107306,0.22930838585729704,0.05660323447018805
582.03125,0.03606650368615806,-0.04715683865079806,-0.016991305061391165,0.01722191057976525,0.009269988766216502,-0.010801095663281923,-0.004442945540452281,-0.032343067459710585,0.1898373488623872,0.03201385715133126,0.07435079338738257,0.2572223104646479,0.2079217879323772,0.1342165484278936,0.1371391309510387,0.03304006557799599
583.984375,0.007250009629189183,-0.012712525664295354,-0.0380034107693423,0.024561133565130334,0.016956755098447105,-0.05826953284763015,0.021527043205829762,-0.05882014470519457,0.06619409999606055,0.11749575413573406,0.010155681856490153,0.15506421691625355,0.13735921614688948,0.2029628666187399,0.12200885220262389,0.1844692719939847
585.9375,0.014576868721467408,-0.02200810563163356,-0.03384528161939768,-0.010708664665763371,0.009490693915936902,-0.04715421945817698,0.02809656002166409,-0.0027745105933186707,0.09566111048874999,0.07213756779494007,0.16380323661821156,0.11714480971780553,0.010582486467511174,0.2969459982236569,0.11773269202769934,0.17385444219779123
587.890625,-0.006255855032804047,0.03783379580538707,0.007302775740677376,-0.014910639610082571,0.01776574902870864,0.014360570334831374,-0.036898740266695346,-0.01984722066705383,0.10604343836673835,0.08414113645002015,0.20025357231249225,0.24069180719732958,0.09221594981471071,-0.04397623806282945,0.15329171559439322,-0.013311125887012335
589.84375,-0.008102823548776375,-0.03332517236613374,0.01045363743929878,-0.0382410338293043,-0.04861097666851033,-0.00095390635482383,-0.006860978375330782,-0.01364884383667519,0.11091670886409105,0.16757540401363571,-0.08143590105884296,0.05501816347468433,0.1828337313214511,0.07533970620611256,0.06540067704156899,0.08188436775474106
591.796875,0.023192623007866935,0.011557390409412189,-0.013873475779678988,-0.021578628772223746,-0.04322080709913131,-0.013512207268229692,0.007792762924098411,-0.006991281425000908,0.09400423430291804,0.11348684880712434,0.2676469028751852,0.04782328557083913,0.07155950532866927,0.23837462539198184,0.09542476155885456,0.18502969517913637
593.75,-0.021158965660275354,0.031006520970925714,-0.0035444260524530344,-0.0071709025350173775,-0.09591269929599133,0.015214887124468382,0.056677548091030386,0.009732036981761302,0.1719269601365885,0.07406275104451786,0.07166548620145696,0.1974864772672782,0.05677741908259701,0.09064493326075296,0.10378575034770986,0.014213281964579352
595.703125,0.004273314612676799,-0.017932342283508682,-0.03444718833766476,0.06395123534983031,-0.06918753097870091,-0.03334501519820416,0.0268285546493267,-0.02442379426197761,0.15649710243897194,0.12550273743206253,-0.06505053896006449,0.2048561759750992,0.1197553025216059,0.10329036692667568,-0.008344964296235914,0.07727005049295843
597.65625,-0.03969173005456414,-0.006715604024269473,-0.040640566469008314,-0.00033526031823823685,-0.0006870454434725617,-0.011033255291262603,0.027584422827892353,-0.017005614223843463,-0.010406764971768732,0.09320789783228171,0.10828795080954517,0.006991045613207878,0.05178227834881273,0.1711198560841523,0.07931926096894465,0.17457470968914046
599.609375,0.0015144931637122246,0.04939950010496858,0.04645535678560192,0.044041219365583396,0.015137459847309007,0.02697357343110629,-0.04472254763406028,0.013741334024057153,0.160207278270074,0.07425881058711248,0.3318442939344609,0.2648622057366195,0.1304408580426867,0.1360893979543269,0.11286028542022053,0.15164907367836913
601.5625,-0.03328392704213903,-0.005817067084003391,0.044108501544288914,0.010630932074193038,-0.003819372108488096,-0.01510358000669097,0.02313162283761699,-0.029497354970236974,0.18676699596081223,0.18650192901573442,0.10021217712810088,0.16667703434534692,0.1851298186042179,0.10594210381815006,0.036906128270929386,0.08507586514999113
603.515625,-0.01288631364834666,0.004443679222053,-0.002523375951140904,-0.060117881031083696,0.02150352617118356,0.0522722109746037,0.07448767669239417,0.005635012758797381,-0.07124579345805268,0.08728243287484068,0.1309197989589774,-0.0012180660371770109,0.008557743518312011,0.26007907937397423,0.07845930422593926,0.2114478231669682
605.46875,-0.0332699059576739,0.03528152321010872,0.031101432407790206,0.005193679641681676,-0.02265560248565139,-0.012028316903244648,-0.035964354313042804,-0.004775206755389555,0.10595576073902974,0.061945116945711656,0.20891451984234677,0.1668218810522784,0.07596226157007954,0.2272211090978269,0.1931232504916876,0.09700827844752836
607.421875,0.05983370031942462,0.014692808971020129,0.036646681198766254,-0.03515534709416672,0.0009173951500263187,0.02326590826440259,0.0500746687186296,0.007884118829619683,0.17691494801307928,0.20125572023757257,0.12730784288340552,0.24787620134842808,0.06987439085616472,-0.026640018377010508,0.02171470593907021,0.05247405460775672
609.375,0.04358146875554189,0.04383320271861913,-0.01193207950834742,0.022371976212587512,-0.0015424349837934934,0.06115035304853341,0.024756151841228518,0.03271931170197636,0.018106325392023934,0.17906421522683974,0.17897129389815858,0.056776170322938385,0.15622030291997654,0.15182353754195915,0.11085169362638628,0.19250316236116533
611.328125,-0.024081463885405566,0.021134729650150945,0.046978143609863604,0.04911465866944508,0.02929676921431522,0.03190044161746677,0.004841767155216905,-0.011655674346828439,0.049564501882004376,-0.011522298069835516,0.20459147689628943,0.11006660720112624,-0.048203828905629825,0.09496612406450347,0.05221420810183644,0.16514762239218023
613.28125,0.04360948900585097,0.06871834075379168,0.029447751872435677,-0.021295829800920908,-0.0017405021306902328,0.027691547814141286,0.022800580105703693,-0.016702128119128405,0.10909842109523774,0.08830442076975194,0.18492980004254428,0.2574726185992067,0.1240651113110943,0.020932563156573533,0.15938864900669214,0.10066395239064208
615.234375,0.06371907779476245,0.06929616706279727,0.028930281157876027,0.017242096575464442,0.07349129518605303,0.01898275661549547,0.07690537749853105,0.07334124766468482,0.11640222360262106,0.06900180492206223,0.10679268698578648,0.12118227176431168,0.0874038830938306,0.14126739237251157,0.03584211132378336,0.08307573404322799
617.1875,0.016895467590495677,0.12008930242544297,0.03895424136385028,0.05944134186961867,0.018258940735221423,0.06452889942212274,-0.011528523636103696,0.05647358821191267,0.05807205782039585,0.056111763886752444,0.18930143915435765,0.14496384463341916,0.03757135673935552,0.2667263639600115,0.21540390148833263,0.10160767243776589
619.140625,0.05790979004070543,0.03850870970940416,0.13537180742395707,0.020570029595670534,0.049100297211134285,0.04178527649989752,0.061097206988565154,0.014225352327473302,0.17518671476167214,0.09423532642362778,0.17753388952322008,0.11522313837339838,0.19390143020705702,0.02655127005359189,0.14734391203672473,0.015745404606566336
621.09375,0.07218663081738291,0.05787011749014556,0.0016718441268931388,0.03319784376220165,0.07032370259145171,0.05210497174210736,0.0862462566706114,0.048778639408471915,0.07861469475954623,0.2202159923075991,0.09580937795408856,0.076806722256441,0.15954560169826343,0.13607565785858558,0.05378534280819815,0.1476051791415688
623.046875,0.022075613785683706,0.09081636560144742,0.09486132177897362,0.05806697952784602,0.05124668388068898,0.16266158280489942,-0.009943265716438216,0.11246629104716552,0.058039329959508154,0.09666128310726912,0.24402424864301156,0.012015270997470188,0.054429122673478,0.30135874628759285,0.17949269334779627,0.15090161980280736
625.0,0.01165012295115709,0.09102158708614126,0.10234999335062439,0.05975110813257405,0.058050096699872815,0.06862955800443657,0.05013063592473485,0.08288263662584214,0.08395953923636877,0.08605912428391688,0.17534996845323922,0.23920909322087763,0.08839381803152203,0.16634174398146945,0.11917420275776473,0.06457945481578967
626.953125,0.12652575718328105,-0.002529085378535801,0.01258906560146439,0.04691711508282484,0.08770980138671126,0.017702522681664862,0.06875374580819228,0.049055643682151893,0.11444231837902857,0.15119336527342722,0.11571900524731493,0.20862983536157287,0.19887645657742947,0.117626653247573,-0.04602605029857239,0.06493233746162666
628.90625,0.044199022594191784,0.05384775985887176,0.08216499768977001,0.11406992807521588,0.06739051795363517,0.09931892997207821,0.02011849485030601,0.10726293436291517,-0.008035590458208362,0.09990053466834202,0.10918070763687988,-0.04385370417042107,0.01867919902360632,0.27131375493527765,0.07118752635562413,0.1682733807973885
630.859375,0.04549271037045357,0.10604674103788768,0.06941239302772234,0.10096450316016417,0.008622109995455348,0.06563059280694095,0.07011682101758802,0.04741736793692833,0.08708651593079164,0.0033257465214110993,0.20025612636561196,0.180297732322068,0.10229761427029017,0.1565381484748327,0.13448301142581903,0.10472705739459978
632.8125,0.11198152014717261,0.052535123816790236,0.06583980225606663,-0.005412093885469937,0.11595403498670663,0.020289536727984114,0.14310485125807976,0.06355952274923031,0.18679298384820248,0.15620372743662403,0.04013661292121383,0.14551757906001975,0.13652277482031308,0.11827966394212827,0.03815110169883958,0.06848144361513808
634.765625,0.01987202815385197,0.1009586111408187,0.06395970477297365,0.11282481212011887,0.10759414303745624,0.09760558500278564,0.048575153080215615,0.09704591558959663,0.02260253306930389,0.15354701761094283,0.11654586528323188,0.05533683047555943,0.053481269117551605,0.20084082270492865,0.0872536461831225,0.07490502567438427
636.71875,0.031292547889960526,0.11244378874828159,0.1052529555307116,0.08856859196675419,-0.004455026762439297,0.03975731615321623,0.046866019896860935,0.10605626957230786,0.07079252165105591,0.02306589890008059,0.23906784899942088,0.1078746202294662,0.027598119408688185,0.19454412212796912,0.1984773354878827,0.1920823535889885
638.671875,0.09000336580868903,0.11016618166942696,0.030851040500905216,-0.02546444886677067,0.11350179946459452,-0.011240964220060162,0.05911697601861969,0.03720922439340537,0.2351370822386749,0.12948733895411565,0.2038060430476021,0.2637617010750011,0.16675146414501316,0.0011996186854015259,0.02978533540506216,-0.015524644218333578
640.625,0.09349546871073777,0.028815893822466052,0.08470527958737518,0.1143227783547493,0.05040204222678239,0.10036717465635428,0.10133575750667388,0.05571232588254242,0.10840202479055411,0.1435646258340914,0.09460270604547122,-0.01259457467719986,0.0618412432931742,0.24257311562755893,0.047976555247512,0.13192264045442056
642.578125,-0.007283347347344764,0.03805486222643792,0.1339498680428509,0.06950720570878079,-0.06445328687602958,0.08674850854790066,0.0013448975836602025,0.06577842202372444,0.07662692931733757,-0.014758712650202118,0.16513588751752767,0.10848996690117542,0.016600764547163468,0.2616566156244118,0.1629422710474165,0.1280798390627786
644.53125,0.01864245134998408,0.07871431243199026,0.09598005562175381,0.059918325452736315,0.09761806264550116,0.04589007106207129,0.1308024827495523,-0.01755008663294221,0.18130100964109255,0.17943715204647281,0.04500437332067672,0.11136035027455728,0.14258762225282548,-0.00032294741694549253,0.11416191200820465,0.010952800006259174
646.484375,0.09129662942693084,0.03569587212079497,-0.004505757671378644,0.04220878247701531,0.07349901391222544,0.0788068845896736,0.06653406612341596,0.1137770275076472,0.09200406113268805,0.13536220822879702,0.1468617633199043,0.10529137718546588,0.11909432994223607,0.09306519467779287,0.1034524735966375,0.12264880534265464
648.4375,-0.034103491222124874,0.12014516000258248,0.10802876741025982,0.11228378375198278,0.03812605685644192,0.07675097452699982,0.002731012366206087,0.0775263164950954,0.03532114966045905,0.030528494845557287,0.23444713387802285,0.11069025776854405,-0.013989816515356995,0.16891194409850535,0.11973689188227571,0.14601130116262812
650.390625,0.12237802470232255,0.07814368906192053,0.0899564304943381,-0.0017683531803592658,0.07215172838239839,0.06270474956483511,0.05552510398981105,-0.013701404325564336,0.09558653802377796,0.03617842257137895,0.11711802600627653,0.13402540903010185,0.11907906298470296,0.064294286974036,0.17093498877143481,0.025392329945017132
652.34375,0.13201828573148078,0.045139649516356795,0.04275596940513234,0.08505695104824924,0.07623875335335512,0.08768551760587152,0.09044415294741458,0.09610274363554837,0.15385551343808654,0.09665786408115652,-0.005309250914262102,0.12349294799499744,0.17780136827650056,0.27854978654089735,0.01756558739318656,0.10756164027780266
654.296875,0.04892111694492994,0.10865734990027964,0.07175937224153295,0.06287994680117442,0.03226187663888829,0.07536480057672909,0.017251463810322137,0.15396073376510364,0.039635189723869785,0.05782173018505901,0.12251759573275613,0.07753051583843357,0.025630458723931663,0.2432451959250858,0.13745996490496992,0.1411672405632383
656.25,0.07941485192169219,0.06458471056247848,0.12783162245122648,0.08408317012281788,0.04116780194468951,0.05431963443650615,0.06760533518850724,0.01910583966711617,0.11333628832947026,0.07272020571928592,0.21968042482808137,0.2395883077089981,0.10240813936078401,0.1660077911951514,0.18112040487103892,-0.009150814936445886
658.203125,0.11155735919494335,0.012801343949826889,0.06524111902627468,0.08069408378935995,0.09453922452089598,-0.017931970460140164,0.10102733544237623,0.06477958077156208,0.1314445708689209,0.18004329319551182,0.05161589119175186,0.20282160069472546,0.1365530828981396,0.12759356747241354,-0.1278650979881079,0.06767689269230057
660.15625,0.08350275417095922,0.05931619506093725,0.06112483016781126,0.07002386291462906,0.06244493846648667,0.1462787669327121,0.0625284578116876,0.1321784628730143,0.006423011613733307,0.017887608004391653,0.1510796848157291,-0.041356851525096515,-0.003209430715123633,0.23130121173845633,0.09287511784782901,0.12691318612143404
662.109375,0.050597321689729406,0.08424877528222371,0.10870708562893167,0.07561142782612215,0.04984175420915725,0.06728206922382653,0.06275577022853898,0.014241924425333532,0.15753676246796994,0.07184202178354251,0.15306309856979405,0.18590345984926762,0.10797112035645298,0.09604771274531182,0.1629464210837986,0.10625592489032323
664.0625,0.11380502412367931,0.0375548210841897,0.048988012002130064,0.024475506445847457,0.12033557571143841,0.00681126573051682,0.12161389310150733,0.0840179242414444,0.1318151452900908,0.09252312796187606,0.008676757773309306,0.11463772949840968,0.1295319774159033,0.1256764264091851,0.07414911690823128,0.06089339584247119
666.015625,0.06259644395670669,0.11067900100194437,0.07703127936103533,0.11577142709805957,0.12962554514918845,0.15458833793053758,0.061923166264603584,0.08132325257266097,0.008917708787011886,0.15605864857493593,0.20035800415765304,0.005257200321247775,-0.008680005806548652,0.31386937336648996,0.11309488709454668,0.1709246120701306
667.96875,-0.0042394995250669,0.08112722871071262,0.10988983657650643,0.0995638089754202,0.021569540882113467,0.06528362797564609,0.03904563568955389,0.11188996522373834,0.0889730562912917,0.06046698903382999,0.26382953099908646,0.2512166095139585,0.13535398122835313,0.2611316283160001,0.10265539143973483,0.10548529302119597
669.921875,0.07719430133245879,0.042081091594270544,0.05874180325079253,-0.004527377413798305,0.10406476425792349,-0.04439612706556386,0.09240153661571388,-0.013639454517591434,0.08481411440191708,0.07086431637471316,0.14674496990500777,0.21937651811620412,0.14622200920288228,0.008934083051801146,0.020887191709321407,-0.008414600975167594
671.875,0.07730172072022523,0.06295727906070721,-0.0005893637759289894,0.07913442335997747,0.10826077256880653,0.0893091366293621,0.03606213750693238,0.09983358551977096,0.05079639219808112,0.14261980256346365,0.0562260933234999,0.0408822263451272,0.11355866457319487,0.18160026936020185,0.0419658715843432,0.15211578807541856
673.828125,0.05397654050836069,0.10732691186970272,0.10966381748764203,0.10210512735910639,-0.012100940042490268,0.10725888279192707,0.030051425009300418,0.05516433389020882,0.025917677352892868,0.051266116962847566,0.14342705654063298,0.18621413575025275,0.031894157874920455,0.16637789834654618,0.15549002087333652,0.2155154407860243
675.78125,0.09776610286084322,0.08078416002631349,0.10511936735638541,-0.017441415423603716,0.10443367465197595,0.030403593372372473,0.06451482949789661,-0.0035729155390288657,0.12869657561409187,0.1143482633445042,0.16704271633616985,0.15755836196858297,0.09920740912939299,0.045874354569259285,0.0228253099772157,-0.05567631363161637
677.734375,0.11427910910987116,0.06843777977819039,-0.005070475597406285,0.06558686079683317,0.15306585828455524,0.0927270434989876,0.08949094967301395,0.09395131544925339,0.03150664110646461,0.055353259266830226,0.06521490378764608,0.09858798907693446,0.19847918719368846,0.21885095451981806,0.015088814638704387,0.15490351204815453
679.6875,0.03653231083889136,0.08888928426461336,0.10128133966912314,0.11741224248805085,-0.009095877480889868,0.044349565707339555,-0.03707274675879811,0.13029088788429458,-0.010231065127413466,0.10085048715128468,0.2373322056663537,0.16379689247127532,0.01259783426908715,0.0817950854293979,0.15814983794474327,0.09823988450292515
681.640625,0.07429031546859624,0.09933173547344637,0.057586185135174946,0.061807416198525734,0.06542138078725666,0.04033388624235854,0.11203818162261918,-0.033261385502689436,0.18756020395049683,0.08325478955962089,0.13703595481227837,0.22095113216294765,0.09981944375370361,0.124495215357078,0.06087860200499891,0.03981562330229637
683.59375,0.04930487673952656,0.0039006579708211857,0.026640547312974293,0.09747896403206027,0.09205490222681774,0.0702974625140921,0.09225737841505044,0.10138833930159856,0.13348203982111043,0.11010633658601865,0.048998595431523156,0.08662918676274267,0.1139807946165972,0.15448502890400503,-0.033405768783789785,0.1002184870534732
