Time_ms,iliacus_left,iliacus_right,psoas_left,psoas_right
0,0.0,0.0,0.0,0.0
1,0.0031410759078128294,0.0031410759078128294,0.0031410759078128294,0.0031410759078128294
2,0.006279051952931338,0.006279051952931338,0.006279051952931338,0.006279051952931338
3,0.009410831331851433,0.009410831331851433,0.009410831331851433,0.009410831331851433
4,0.012533323356430426,0.012533323356430426,0.012533323356430426,0.012533323356430426
5,0.01564344650402309,0.01564344650402309,0.01564344650402309,0.01564344650402309
6,0.018738131458572463,0.018738131458572463,0.018738131458572463,0.018738131458572463
7,0.021814324139654256,0.021814324139654256,0.021814324139654256,0.021814324139654256
8,0.02486898871648548,0.02486898871648548,0.02486898871648548,0.02486898871648548
9,0.02789911060392293,0.02789911060392293,0.02789911060392293,0.02789911060392293
10,0.03090169943749474,0.03090169943749474,0.03090169943749474,0.03090169943749474
11,0.033873792024529135,0.033873792024529135,0.033873792024529135,0.033873792024529135
12,0.0368124552684678,0.0368124552684678,0.0368124552684678,0.0368124552684678
13,0.03971478906347806,0.03971478906347806,0.03971478906347806,0.03971478906347806
14,0.042577929156507266,0.042577929156507266,0.042577929156507266,0.042577929156507266
15,0.04539904997395468,0.04539904997395468,0.04539904997395468,0.04539904997395468
16,0.04817536741017153,0.04817536741017153,0.04817536741017153,0.04817536741017153
17,0.050904141575037136,0.050904141575037136,0.050904141575037136,0.050904141575037136
18,0.05358267949789967,0.05358267949789967,0.05358267949789967,0.05358267949789967
19,0.05620833778521306,0.05620833778521306,0.05620833778521306,0.05620833778521306
20,0.058778525229247314,0.058778525229247314,0.058778525229247314,0.058778525229247314
21,0.061290705365297654,0.061290705365297654,0.061290705365297654,0.061290705365297654
22,0.06374239897486897,0.06374239897486897,0.06374239897486897,0.06374239897486897
23,0.06613118653236519,0.06613118653236519,0.06613118653236519,0.06613118653236519
24,0.06845471059286888,0.06845471059286888,0.06845471059286888,0.06845471059286888
25,0.07071067811865475,0.07071067811865475,0.07071067811865475,0.07071067811865475
26,0.07289686274214116,0.07289686274214116,0.07289686274214116,0.07289686274214116
27,0.07501110696304596,0.07501110696304596,0.07501110696304596,0.07501110696304596
28,0.07705132427757894,0.07705132427757894,0.07705132427757894,0.07705132427757894
29,0.07901550123756905,0.07901550123756905,0.07901550123756905,0.07901550123756905
30,0.08090169943749476,0.08090169943749476,0.08090169943749476,0.08090169943749476
31,0.08270805742745618,0.08270805742745618,0.08270805742745618,0.08270805742745618
32,0.08443279255020152,0.08443279255020152,0.08443279255020152,0.08443279255020152
33,0.08607420270039437,0.08607420270039437,0.08607420270039437,0.08607420270039437
34,0.08763066800438638,0.08763066800438638,0.08763066800438638,0.08763066800438638
35,0.08910065241883679,0.08910065241883679,0.08910065241883679,0.08910065241883679
36,0.09048270524660196,0.09048270524660196,0.09048270524660196,0.09048270524660196
37,0.09177546256839811,0.09177546256839811,0.09177546256839811,0.09177546256839811
38,0.09297764858882514,0.09297764858882514,0.09297764858882514,0.09297764858882514
39,0.09408807689542255,0.09408807689542255,0.09408807689542255,0.09408807689542255
40,0.09510565162951536,0.09510565162951536,0.09510565162951536,0.09510565162951536
41,0.09602936856769431,0.09602936856769431,0.09602936856769431,0.09602936856769431
42,0.09685831611286311,0.09685831611286311,0.09685831611286311,0.09685831611286311
43,0.09759167619387475,0.09759167619387475,0.09759167619387475,0.09759167619387475
44,0.09822872507286887,0.09822872507286887,0.09822872507286887,0.09822872507286887
45,0.09876883405951378,0.09876883405951378,0.09876883405951378,0.09876883405951378
46,0.0992114701314478,0.0992114701314478,0.0992114701314478,0.0992114701314478
47,0.099556196460308,0.099556196460308,0.099556196460308,0.099556196460308
48,0.09980267284282716,0.09980267284282716,0.09980267284282716,0.09980267284282716
49,0.09995065603657316,0.09995065603657316,0.09995065603657316,0.09995065603657316
50,0.1,0.1,0.1,0.1
51,0.09995065603657316,0.09995065603657316,0.09995065603657316,0.09995065603657316
52,0.09980267284282716,0.09980267284282716,0.09980267284282716,0.09980267284282716
53,0.099556196460308,0.099556196460308,0.099556196460308,0.099556196460308
54,0.0992114701314478,0.0992114701314478,0.0992114701314478,0.0992114701314478
55,0.09876883405951378,0.09876883405951378,0.09876883405951378,0.09876883405951378
56,0.09822872507286888,0.09822872507286888,0.09822872507286888,0.09822872507286888
57,0.09759167619387475,0.09759167619387475,0.09759167619387475,0.09759167619387475
58,0.09685831611286311,0.09685831611286311,0.09685831611286311,0.09685831611286311
59,0.09602936856769431,0.09602936856769431,0.09602936856769431,0.09602936856769431
60,0.09510565162951537,0.09510565162951537,0.09510565162951537,0.09510565162951537
61,0.09408807689542255,0.09408807689542255,0.09408807689542255,0.09408807689542255
62,0.09297764858882514,0.09297764858882514,0.09297764858882514,0.09297764858882514
63,0.09177546256839814,0.09177546256839814,0.09177546256839814,0.09177546256839814
64,0.09048270524660196,0.09048270524660196,0.09048270524660196,0.09048270524660196
65,0.0891006524188368,0.0891006524188368,0.0891006524188368,0.0891006524188368
66,0.08763066800438635,0.08763066800438635,0.08763066800438635,0.08763066800438635
67,0.08607420270039437,0.08607420270039437,0.08607420270039437,0.08607420270039437
68,0.0844327925502015,0.0844327925502015,0.0844327925502015,0.0844327925502015
69,0.08270805742745618,0.08270805742745618,0.08270805742745618,0.08270805742745618
70,0.08090169943749476,0.08090169943749476,0.08090169943749476,0.08090169943749476
71,0.07901550123756904,0.07901550123756904,0.07901550123756904,0.07901550123756904
72,0.07705132427757894,0.07705132427757894,0.07705132427757894,0.07705132427757894
73,0.07501110696304597,0.07501110696304597,0.07501110696304597,0.07501110696304597
74,0.07289686274214117,0.07289686274214117,0.07289686274214117,0.07289686274214117
75,0.07071067811865477,0.07071067811865477,0.07071067811865477,0.07071067811865477
76,0.06845471059286888,0.06845471059286888,0.06845471059286888,0.06845471059286888
77,0.06613118653236519,0.06613118653236519,0.06613118653236519,0.06613118653236519
78,0.06374239897486898,0.06374239897486898,0.06374239897486898,0.06374239897486898
79,0.06129070536529764,0.06129070536529764,0.06129070536529764,0.06129070536529764
80,0.05877852522924733,0.05877852522924733,0.05877852522924733,0.05877852522924733
81,0.05620833778521305,0.05620833778521305,0.05620833778521305,0.05620833778521305
82,0.05358267949789967,0.05358267949789967,0.05358267949789967,0.05358267949789967
83,0.050904141575037115,0.050904141575037115,0.050904141575037115,0.050904141575037115
84,0.048175367410171525,0.048175367410171525,0.048175367410171525,0.048175367410171525
85,0.04539904997395469,0.04539904997395469,0.04539904997395469,0.04539904997395469
86,0.04257792915650725,0.04257792915650725,0.04257792915650725,0.04257792915650725
87,0.03971478906347806,0.03971478906347806,0.03971478906347806,0.03971478906347806
88,0.03681245526846782,0.03681245526846782,0.03681245526846782,0.03681245526846782
89,0.03387379202452918,0.03387379202452918,0.03387379202452918,0.03387379202452918
90,0.030901699437494753,0.030901699437494753,0.030901699437494753,0.030901699437494753
91,0.027899110603922958,0.027899110603922958,0.027899110603922958,0.027899110603922958
92,0.024868988716485484,0.024868988716485484,0.024868988716485484,0.024868988716485484
93,0.021814324139654277,0.021814324139654277,0.021814324139654277,0.021814324139654277
94,0.01873813145857246,0.01873813145857246,0.01873813145857246,0.01873813145857246
95,0.0156434465040231,0.0156434465040231,0.0156434465040231,0.0156434465040231
96,0.01253332335643041,0.01253332335643041,0.01253332335643041,0.01253332335643041
97,0.009410831331851437,0.009410831331851437,0.009410831331851437,0.009410831331851437
98,0.006279051952931359,0.006279051952931359,0.006279051952931359,0.006279051952931359
99,0.0031410759078128237,0.0031410759078128237,0.0031410759078128237,0.0031410759078128237
100,1.2246467991473533e-17,1.2246467991473533e-17,1.2246467991473533e-17,1.2246467991473533e-17
101,-0.003141075907812844,-0.003141075907812844,-0.003141075907812844,-0.003141075907812844
102,-0.006279051952931335,-0.006279051952931335,-0.006279051952931335,-0.006279051952931335
103,-0.009410831331851456,-0.009410831331851456,-0.009410831331851456,-0.009410831331851456
104,-0.01253332335643043,-0.01253332335643043,-0.01253332335643043,-0.01253332335643043
105,-0.015643446504023075,-0.015643446504023075,-0.015643446504023075,-0.015643446504023075
106,-0.01873813145857243,-0.01873813145857243,-0.01873813145857243,-0.01873813145857243
107,-0.021814324139654253,-0.021814324139654253,-0.021814324139654253,-0.021814324139654253
108,-0.02486898871648546,-0.02486898871648546,-0.02486898871648546,-0.02486898871648546
109,-0.02789911060392293,-0.02789911060392293,-0.02789911060392293,-0.02789911060392293
110,-0.03090169943749473,-0.03090169943749473,-0.03090169943749473,-0.03090169943749473
111,-0.03387379202452915,-0.03387379202452915,-0.03387379202452915,-0.03387379202452915
112,-0.03681245526846779,-0.03681245526846779,-0.03681245526846779,-0.03681245526846779
113,-0.03971478906347804,-0.03971478906347804,-0.03971478906347804,-0.03971478906347804
114,-0.042577929156507266,-0.042577929156507266,-0.042577929156507266,-0.042577929156507266
115,-0.04539904997395467,-0.04539904997395467,-0.04539904997395467,-0.04539904997395467
116,-0.04817536741017154,-0.04817536741017154,-0.04817536741017154,-0.04817536741017154
117,-0.05090414157503712,-0.05090414157503712,-0.05090414157503712,-0.05090414157503712
118,-0.05358267949789968,-0.05358267949789968,-0.05358267949789968,-0.05358267949789968
119,-0.05620833778521306,-0.05620833778521306,-0.05620833778521306,-0.05620833778521306
120,-0.05877852522924731,-0.05877852522924731,-0.05877852522924731,-0.05877852522924731
121,-0.061290705365297626,-0.061290705365297626,-0.061290705365297626,-0.061290705365297626
122,-0.06374239897486897,-0.06374239897486897,-0.06374239897486897,-0.06374239897486897
123,-0.06613118653236517,-0.06613118653236517,-0.06613118653236517,-0.06613118653236517
124,-0.06845471059286888,-0.06845471059286888,-0.06845471059286888,-0.06845471059286888
125,-0.07071067811865475,-0.07071067811865475,-0.07071067811865475,-0.07071067811865475
126,-0.07289686274214113,-0.07289686274214113,-0.07289686274214113,-0.07289686274214113
127,-0.07501110696304596,-0.07501110696304596,-0.07501110696304596,-0.07501110696304596
128,-0.07705132427757894,-0.07705132427757894,-0.07705132427757894,-0.07705132427757894
129,-0.07901550123756905,-0.07901550123756905,-0.07901550123756905,-0.07901550123756905
130,-0.08090169943749474,-0.08090169943749474,-0.08090169943749474,-0.08090169943749474
131,-0.08270805742745617,-0.08270805742745617,-0.08270805742745617,-0.08270805742745617
132,-0.08443279255020153,-0.08443279255020153,-0.08443279255020153,-0.08443279255020153
133,-0.08607420270039438,-0.08607420270039438,-0.08607420270039438,-0.08607420270039438
134,-0.08763066800438636,-0.08763066800438636,-0.08763066800438636,-0.08763066800438636
135,-0.08910065241883679,-0.08910065241883679,-0.08910065241883679,-0.08910065241883679
136,-0.09048270524660199,-0.09048270524660199,-0.09048270524660199,-0.09048270524660199
137,-0.09177546256839814,-0.09177546256839814,-0.09177546256839814,-0.09177546256839814
138,-0.09297764858882515,-0.09297764858882515,-0.09297764858882515,-0.09297764858882515
139,-0.09408807689542255,-0.09408807689542255,-0.09408807689542255,-0.09408807689542255
140,-0.09510565162951536,-0.09510565162951536,-0.09510565162951536,-0.09510565162951536
141,-0.09602936856769433,-0.09602936856769433,-0.09602936856769433,-0.09602936856769433
142,-0.09685831611286312,-0.09685831611286312,-0.09685831611286312,-0.09685831611286312
143,-0.09759167619387475,-0.09759167619387475,-0.09759167619387475,-0.09759167619387475
144,-0.09822872507286888,-0.09822872507286888,-0.09822872507286888,-0.09822872507286888
145,-0.09876883405951377,-0.09876883405951377,-0.09876883405951377,-0.09876883405951377
146,-0.09921147013144778,-0.09921147013144778,-0.09921147013144778,-0.09921147013144778
147,-0.099556196460308,-0.099556196460308,-0.099556196460308,-0.099556196460308
148,-0.09980267284282716,-0.09980267284282716,-0.09980267284282716,-0.09980267284282716
149,-0.09995065603657316,-0.09995065603657316,-0.09995065603657316,-0.09995065603657316
150,-0.1,-0.1,-0.1,-0.1
151,-0.09995065603657316,-0.09995065603657316,-0.09995065603657316,-0.09995065603657316
152,-0.09980267284282716,-0.09980267284282716,-0.09980267284282716,-0.09980267284282716
153,-0.09955619646030801,-0.09955619646030801,-0.09955619646030801,-0.09955619646030801
154,-0.0992114701314478,-0.0992114701314478,-0.0992114701314478,-0.0992114701314478
155,-0.09876883405951378,-0.09876883405951378,-0.09876883405951378,-0.09876883405951378
156,-0.09822872507286888,-0.09822872507286888,-0.09822872507286888,-0.09822872507286888
157,-0.09759167619387477,-0.09759167619387477,-0.09759167619387477,-0.09759167619387477
158,-0.09685831611286311,-0.09685831611286311,-0.09685831611286311,-0.09685831611286311
159,-0.09602936856769431,-0.09602936856769431,-0.09602936856769431,-0.09602936856769431
160,-0.09510565162951537,-0.09510565162951537,-0.09510565162951537,-0.09510565162951537
161,-0.09408807689542256,-0.09408807689542256,-0.09408807689542256,-0.09408807689542256
162,-0.09297764858882512,-0.09297764858882512,-0.09297764858882512,-0.09297764858882512
163,-0.09177546256839811,-0.09177546256839811,-0.09177546256839811,-0.09177546256839811
164,-0.09048270524660196,-0.09048270524660196,-0.09048270524660196,-0.09048270524660196
165,-0.0891006524188368,-0.0891006524188368,-0.0891006524188368,-0.0891006524188368
166,-0.08763066800438635,-0.08763066800438635,-0.08763066800438635,-0.08763066800438635
167,-0.08607420270039434,-0.08607420270039434,-0.08607420270039434,-0.08607420270039434
168,-0.0844327925502015,-0.0844327925502015,-0.0844327925502015,-0.0844327925502015
169,-0.08270805742745618,-0.08270805742745618,-0.08270805742745618,-0.08270805742745618
170,-0.08090169943749476,-0.08090169943749476,-0.08090169943749476,-0.08090169943749476
171,-0.07901550123756901,-0.07901550123756901,-0.07901550123756901,-0.07901550123756901
172,-0.07705132427757891,-0.07705132427757891,-0.07705132427757891,-0.07705132427757891
173,-0.07501110696304596,-0.07501110696304596,-0.07501110696304596,-0.07501110696304596
174,-0.07289686274214116,-0.07289686274214116,-0.07289686274214116,-0.07289686274214116
175,-0.07071067811865471,-0.07071067811865471,-0.07071067811865471,-0.07071067811865471
176,-0.0684547105928689,-0.0684547105928689,-0.0684547105928689,-0.0684547105928689
177,-0.06613118653236523,-0.06613118653236523,-0.06613118653236523,-0.06613118653236523
178,-0.06374239897486904,-0.06374239897486904,-0.06374239897486904,-0.06374239897486904
179,-0.061290705365297654,-0.061290705365297654,-0.061290705365297654,-0.061290705365297654
180,-0.05877852522924734,-0.05877852522924734,-0.05877852522924734,-0.05877852522924734
181,-0.05620833778521309,-0.05620833778521309,-0.05620833778521309,-0.05620833778521309
182,-0.053582679497899716,-0.053582679497899716,-0.053582679497899716,-0.053582679497899716
183,-0.0509041415750372,-0.0509041415750372,-0.0509041415750372,-0.0509041415750372
184,-0.04817536741017153,-0.04817536741017153,-0.04817536741017153,-0.04817536741017153
185,-0.0453990499739547,-0.0453990499739547,-0.0453990499739547,-0.0453990499739547
186,-0.0425779291565073,-0.0425779291565073,-0.0425779291565073,-0.0425779291565073
187,-0.03971478906347812,-0.03971478906347812,-0.03971478906347812,-0.03971478906347812
188,-0.03681245526846779,-0.03681245526846779,-0.03681245526846779,-0.03681245526846779
189,-0.03387379202452914,-0.03387379202452914,-0.03387379202452914,-0.03387379202452914
190,-0.030901699437494764,-0.030901699437494764,-0.030901699437494764,-0.030901699437494764
191,-0.02789911060392297,-0.02789911060392297,-0.02789911060392297,-0.02789911060392297
192,-0.02486898871648545,-0.02486898871648545,-0.02486898871648545,-0.02486898871648545
193,-0.021814324139654243,-0.021814324139654243,-0.021814324139654243,-0.021814324139654243
194,-0.01873813145857247,-0.01873813145857247,-0.01873813145857247,-0.01873813145857247
195,-0.015643446504023113,-0.015643446504023113,-0.015643446504023113,-0.015643446504023113
196,-0.012533323356430466,-0.012533323356430466,-0.012533323356430466,-0.012533323356430466
197,-0.009410831331851404,-0.009410831331851404,-0.009410831331851404,-0.009410831331851404
198,-0.006279051952931327,-0.006279051952931327,-0.006279051952931327,-0.006279051952931327
199,-0.0031410759078128363,-0.0031410759078128363,-0.0031410759078128363,-0.0031410759078128363
200,-2.4492935982947065e-17,-2.4492935982947065e-17,-2.4492935982947065e-17,-2.4492935982947065e-17
201,0.0031410759078128758,0.0031410759078128758,0.0031410759078128758,0.0031410759078128758
202,0.0062790519529313665,0.0062790519529313665,0.0062790519529313665,0.0062790519529313665
203,0.009410831331851444,0.009410831331851444,0.009410831331851444,0.009410831331851444
204,0.012533323356430419,0.012533323356430419,0.012533323356430419,0.012533323356430419
205,0.01564344650402315,0.01564344650402315,0.01564344650402315,0.01564344650402315
206,0.018738131458572508,0.018738131458572508,0.018738131458572508,0.018738131458572508
207,0.021814324139654284,0.021814324139654284,0.021814324139654284,0.021814324139654284
208,0.02486898871648549,0.02486898871648549,0.02486898871648549,0.02486898871648549
209,0.027899110603922833,0.027899110603922833,0.027899110603922833,0.027899110603922833
210,0.03090169943749472,0.03090169943749472,0.03090169943749472,0.03090169943749472
211,0.0338737920245291,0.0338737920245291,0.0338737920245291,0.0338737920245291
212,0.036812455268467735,0.036812455268467735,0.036812455268467735,0.036812455268467735
213,0.039714789063477994,0.039714789063477994,0.039714789063477994,0.039714789063477994
214,0.04257792915650726,0.04257792915650726,0.04257792915650726,0.04257792915650726
215,0.045399049973954664,0.045399049973954664,0.045399049973954664,0.045399049973954664
216,0.04817536741017149,0.04817536741017149,0.04817536741017149,0.04817536741017149
217,0.05090414157503708,0.05090414157503708,0.05090414157503708,0.05090414157503708
218,0.05358267949789967,0.05358267949789967,0.05358267949789967,0.05358267949789967
219,0.05620833778521305,0.05620833778521305,0.05620833778521305,0.05620833778521305
220,0.05877852522924729,0.05877852522924729,0.05877852522924729,0.05877852522924729
221,0.06129070536529762,0.06129070536529762,0.06129070536529762,0.06129070536529762
222,0.06374239897486898,0.06374239897486898,0.06374239897486898,0.06374239897486898
223,0.0661311865323652,0.0661311865323652,0.0661311865323652,0.0661311865323652
224,0.06845471059286887,0.06845471059286887,0.06845471059286887,0.06845471059286887
225,0.07071067811865474,0.07071067811865474,0.07071067811865474,0.07071067811865474
226,0.07289686274214112,0.07289686274214112,0.07289686274214112,0.07289686274214112
227,0.07501110696304597,0.07501110696304597,0.07501110696304597,0.07501110696304597
228,0.07705132427757894,0.07705132427757894,0.07705132427757894,0.07705132427757894
229,0.07901550123756904,0.07901550123756904,0.07901550123756904,0.07901550123756904
230,0.08090169943749473,0.08090169943749473,0.08090169943749473,0.08090169943749473
231,0.08270805742745621,0.08270805742745621,0.08270805742745621,0.08270805742745621
232,0.08443279255020153,0.08443279255020153,0.08443279255020153,0.08443279255020153
233,0.08607420270039437,0.08607420270039437,0.08607420270039437,0.08607420270039437
234,0.08763066800438636,0.08763066800438636,0.08763066800438636,0.08763066800438636
235,0.08910065241883681,0.08910065241883681,0.08910065241883681,0.08910065241883681
236,0.09048270524660197,0.09048270524660197,0.09048270524660197,0.09048270524660197
237,0.09177546256839814,0.09177546256839814,0.09177546256839814,0.09177546256839814
238,0.09297764858882515,0.09297764858882515,0.09297764858882515,0.09297764858882515
239,0.09408807689542255,0.09408807689542255,0.09408807689542255,0.09408807689542255
240,0.09510565162951536,0.09510565162951536,0.09510565162951536,0.09510565162951536
241,0.0960293685676943,0.0960293685676943,0.0960293685676943,0.0960293685676943
242,0.09685831611286311,0.09685831611286311,0.09685831611286311,0.09685831611286311
243,0.09759167619387472,0.09759167619387472,0.09759167619387472,0.09759167619387472
244,0.09822872507286887,0.09822872507286887,0.09822872507286887,0.09822872507286887
245,0.09876883405951377,0.09876883405951377,0.09876883405951377,0.09876883405951377
246,0.09921147013144778,0.09921147013144778,0.09921147013144778,0.09921147013144778
247,0.099556196460308,0.099556196460308,0.099556196460308,0.099556196460308
248,0.09980267284282716,0.09980267284282716,0.09980267284282716,0.09980267284282716
249,0.09995065603657316,0.09995065603657316,0.09995065603657316,0.09995065603657316
250,0.1,0.1,0.1,0.1
251,0.09995065603657316,0.09995065603657316,0.09995065603657316,0.09995065603657316
252,0.09980267284282716,0.09980267284282716,0.09980267284282716,0.09980267284282716
253,0.099556196460308,0.099556196460308,0.099556196460308,0.099556196460308
254,0.0992114701314478,0.0992114701314478,0.0992114701314478,0.0992114701314478
255,0.09876883405951377,0.09876883405951377,0.09876883405951377,0.09876883405951377
256,0.09822872507286887,0.09822872507286887,0.09822872507286887,0.09822872507286887
257,0.09759167619387474,0.09759167619387474,0.09759167619387474,0.09759167619387474
258,0.09685831611286311,0.09685831611286311,0.09685831611286311,0.09685831611286311
259,0.09602936856769431,0.09602936856769431,0.09602936856769431,0.09602936856769431
260,0.09510565162951537,0.09510565162951537,0.09510565162951537,0.09510565162951537
261,0.09408807689542258,0.09408807689542258,0.09408807689542258,0.09408807689542258
262,0.09297764858882518,0.09297764858882518,0.09297764858882518,0.09297764858882518
263,0.09177546256839808,0.09177546256839808,0.09177546256839808,0.09177546256839808
264,0.09048270524660193,0.09048270524660193,0.09048270524660193,0.09048270524660193
265,0.08910065241883676,0.08910065241883676,0.08910065241883676,0.08910065241883676
266,0.08763066800438635,0.08763066800438635,0.08763066800438635,0.08763066800438635
267,0.08607420270039436,0.08607420270039436,0.08607420270039436,0.08607420270039436
268,0.08443279255020152,0.08443279255020152,0.08443279255020152,0.08443279255020152
269,0.0827080574274562,0.0827080574274562,0.0827080574274562,0.0827080574274562
270,0.08090169943749477,0.08090169943749477,0.08090169943749477,0.08090169943749477
271,0.07901550123756906,0.07901550123756906,0.07901550123756906,0.07901550123756906
272,0.07705132427757887,0.07705132427757887,0.07705132427757887,0.07705132427757887
273,0.0750111069630459,0.0750111069630459,0.0750111069630459,0.0750111069630459
274,0.0728968627421411,0.0728968627421411,0.0728968627421411,0.0728968627421411
275,0.07071067811865471,0.07071067811865471,0.07071067811865471,0.07071067811865471
276,0.06845471059286884,0.06845471059286884,0.06845471059286884,0.06845471059286884
277,0.06613118653236517,0.06613118653236517,0.06613118653236517,0.06613118653236517
278,0.06374239897486898,0.06374239897486898,0.06374239897486898,0.06374239897486898
279,0.06129070536529766,0.06129070536529766,0.06129070536529766,0.06129070536529766
280,0.05877852522924734,0.05877852522924734,0.05877852522924734,0.05877852522924734
281,0.05620833778521296,0.05620833778521296,0.05620833778521296,0.05620833778521296
282,0.05358267949789957,0.05358267949789957,0.05358267949789957,0.05358267949789957
283,0.05090414157503706,0.05090414157503706,0.05090414157503706,0.05090414157503706
284,0.04817536741017147,0.04817536741017147,0.04817536741017147,0.04817536741017147
285,0.045399049973954636,0.045399049973954636,0.045399049973954636,0.045399049973954636
286,0.04257792915650724,0.04257792915650724,0.04257792915650724,0.04257792915650724
287,0.03971478906347805,0.03971478906347805,0.03971478906347805,0.03971478906347805
288,0.0368124552684678,0.0368124552684678,0.0368124552684678,0.0368124552684678
289,0.033873792024529156,0.033873792024529156,0.033873792024529156,0.033873792024529156
290,0.03090169943749478,0.03090169943749478,0.03090169943749478,0.03090169943749478
291,0.02789911060392298,0.02789911060392298,0.02789911060392298,0.02789911060392298
292,0.02486898871648555,0.02486898871648555,0.02486898871648555,0.02486898871648555
293,0.021814324139654343,0.021814324139654343,0.021814324139654343,0.021814324139654343
294,0.01873813145857257,0.01873813145857257,0.01873813145857257,0.01873813145857257
295,0.01564344650402321,0.01564344650402321,0.01564344650402321,0.01564344650402321
296,0.012533323356430568,0.012533323356430568,0.012533323356430568,0.012533323356430568
297,0.009410831331851593,0.009410831331851593,0.009410831331851593,0.009410831331851593
298,0.006279051952931339,0.006279051952931339,0.006279051952931339,0.006279051952931339
299,0.003141075907812848,0.003141075907812848,0.003141075907812848,0.003141075907812848
300,3.6739403974420595e-17,3.6739403974420595e-17,3.6739403974420595e-17,3.6739403974420595e-17
301,-0.003141075907812775,-0.003141075907812775,-0.003141075907812775,-0.003141075907812775
302,-0.006279051952931266,-0.006279051952931266,-0.006279051952931266,-0.006279051952931266
303,-0.009410831331851343,-0.009410831331851343,-0.009410831331851343,-0.009410831331851343
304,-0.012533323356430318,-0.012533323356430318,-0.012533323356430318,-0.012533323356430318
305,-0.015643446504022964,-0.015643446504022964,-0.015643446504022964,-0.015643446504022964
306,-0.01873813145857232,-0.01873813145857232,-0.01873813145857232,-0.01873813145857232
307,-0.02181432413965427,-0.02181432413965427,-0.02181432413965427,-0.02181432413965427
308,-0.024868988716485477,-0.024868988716485477,-0.024868988716485477,-0.024868988716485477
309,-0.027899110603922906,-0.027899110603922906,-0.027899110603922906,-0.027899110603922906
310,-0.03090169943749471,-0.03090169943749471,-0.03090169943749471,-0.03090169943749471
311,-0.03387379202452909,-0.03387379202452909,-0.03387379202452909,-0.03387379202452909
312,-0.03681245526846773,-0.03681245526846773,-0.03681245526846773,-0.03681245526846773
313,-0.03971478906347798,-0.03971478906347798,-0.03971478906347798,-0.03971478906347798
314,-0.04257792915650717,-0.04257792915650717,-0.04257792915650717,-0.04257792915650717
315,-0.045399049973954726,-0.045399049973954726,-0.045399049973954726,-0.045399049973954726
316,-0.04817536741017156,-0.04817536741017156,-0.04817536741017156,-0.04817536741017156
317,-0.05090414157503714,-0.05090414157503714,-0.05090414157503714,-0.05090414157503714
318,-0.05358267949789966,-0.05358267949789966,-0.05358267949789966,-0.05358267949789966
319,-0.05620833778521305,-0.05620833778521305,-0.05620833778521305,-0.05620833778521305
320,-0.058778525229247286,-0.058778525229247286,-0.058778525229247286,-0.058778525229247286
321,-0.061290705365297606,-0.061290705365297606,-0.061290705365297606,-0.061290705365297606
322,-0.06374239897486891,-0.06374239897486891,-0.06374239897486891,-0.06374239897486891
323,-0.06613118653236512,-0.06613118653236512,-0.06613118653236512,-0.06613118653236512
324,-0.06845471059286892,-0.06845471059286892,-0.06845471059286892,-0.06845471059286892
325,-0.0707106781186548,-0.0707106781186548,-0.0707106781186548,-0.0707106781186548
326,-0.07289686274214117,-0.07289686274214117,-0.07289686274214117,-0.07289686274214117
327,-0.07501110696304597,-0.07501110696304597,-0.07501110696304597,-0.07501110696304597
328,-0.07705132427757894,-0.07705132427757894,-0.07705132427757894,-0.07705132427757894
329,-0.07901550123756902,-0.07901550123756902,-0.07901550123756902,-0.07901550123756902
330,-0.08090169943749473,-0.08090169943749473,-0.08090169943749473,-0.08090169943749473
331,-0.08270805742745616,-0.08270805742745616,-0.08270805742745616,-0.08270805742745616
332,-0.08443279255020157,-0.08443279255020157,-0.08443279255020157,-0.08443279255020157
333,-0.08607420270039441,-0.08607420270039441,-0.08607420270039441,-0.08607420270039441
334,-0.0876306680043864,-0.0876306680043864,-0.0876306680043864,-0.0876306680043864
335,-0.08910065241883681,-0.08910065241883681,-0.08910065241883681,-0.08910065241883681
336,-0.09048270524660197,-0.09048270524660197,-0.09048270524660197,-0.09048270524660197
337,-0.09177546256839812,-0.09177546256839812,-0.09177546256839812,-0.09177546256839812
338,-0.09297764858882514,-0.09297764858882514,-0.09297764858882514,-0.09297764858882514
339,-0.09408807689542253,-0.09408807689542253,-0.09408807689542253,-0.09408807689542253
340,-0.09510565162951534,-0.09510565162951534,-0.09510565162951534,-0.09510565162951534
341,-0.09602936856769434,-0.09602936856769434,-0.09602936856769434,-0.09602936856769434
342,-0.09685831611286315,-0.09685831611286315,-0.09685831611286315,-0.09685831611286315
343,-0.09759167619387477,-0.09759167619387477,-0.09759167619387477,-0.09759167619387477
344,-0.0982287250728689,-0.0982287250728689,-0.0982287250728689,-0.0982287250728689
345,-0.09876883405951378,-0.09876883405951378,-0.09876883405951378,-0.09876883405951378
346,-0.0992114701314478,-0.0992114701314478,-0.0992114701314478,-0.0992114701314478
347,-0.099556196460308,-0.099556196460308,-0.099556196460308,-0.099556196460308
348,-0.09980267284282716,-0.09980267284282716,-0.09980267284282716,-0.09980267284282716
349,-0.09995065603657316,-0.09995065603657316,-0.09995065603657316,-0.09995065603657316
350,-0.1,-0.1,-0.1,-0.1
351,-0.09995065603657316,-0.09995065603657316,-0.09995065603657316,-0.09995065603657316
352,-0.09980267284282716,-0.09980267284282716,-0.09980267284282716,-0.09980267284282716
353,-0.09955619646030801,-0.09955619646030801,-0.09955619646030801,-0.09955619646030801
354,-0.09921147013144781,-0.09921147013144781,-0.09921147013144781,-0.09921147013144781
355,-0.0987688340595138,-0.0987688340595138,-0.0987688340595138,-0.0987688340595138
356,-0.0982287250728689,-0.0982287250728689,-0.0982287250728689,-0.0982287250728689
357,-0.09759167619387478,-0.09759167619387478,-0.09759167619387478,-0.09759167619387478
358,-0.09685831611286312,-0.09685831611286312,-0.09685831611286312,-0.09685831611286312
359,-0.09602936856769433,-0.09602936856769433,-0.09602936856769433,-0.09602936856769433
360,-0.09510565162951538,-0.09510565162951538,-0.09510565162951538,-0.09510565162951538
361,-0.09408807689542258,-0.09408807689542258,-0.09408807689542258,-0.09408807689542258
362,-0.09297764858882518,-0.09297764858882518,-0.09297764858882518,-0.09297764858882518
363,-0.09177546256839816,-0.09177546256839816,-0.09177546256839816,-0.09177546256839816
364,-0.09048270524660201,-0.09048270524660201,-0.09048270524660201,-0.09048270524660201
365,-0.08910065241883686,-0.08910065241883686,-0.08910065241883686,-0.08910065241883686
366,-0.08763066800438644,-0.08763066800438644,-0.08763066800438644,-0.08763066800438644
367,-0.08607420270039437,-0.08607420270039437,-0.08607420270039437,-0.08607420270039437
368,-0.08443279255020152,-0.08443279255020152,-0.08443279255020152,-0.08443279255020152
369,-0.0827080574274562,-0.0827080574274562,-0.0827080574274562,-0.0827080574274562
370,-0.08090169943749477,-0.08090169943749477,-0.08090169943749477,-0.08090169943749477
371,-0.07901550123756908,-0.07901550123756908,-0.07901550123756908,-0.07901550123756908
372,-0.07705132427757898,-0.07705132427757898,-0.07705132427757898,-0.07705132427757898
373,-0.07501110696304603,-0.07501110696304603,-0.07501110696304603,-0.07501110696304603
374,-0.07289686274214123,-0.07289686274214123,-0.07289686274214123,-0.07289686274214123
375,-0.07071067811865485,-0.07071067811865485,-0.07071067811865485,-0.07071067811865485
376,-0.06845471059286885,-0.06845471059286885,-0.06845471059286885,-0.06845471059286885
377,-0.06613118653236519,-0.06613118653236519,-0.06613118653236519,-0.06613118653236519
378,-0.06374239897486898,-0.06374239897486898,-0.06374239897486898,-0.06374239897486898
379,-0.061290705365297675,-0.061290705365297675,-0.061290705365297675,-0.061290705365297675
380,-0.05877852522924735,-0.05877852522924735,-0.05877852522924735,-0.05877852522924735
381,-0.056208337785213114,-0.056208337785213114,-0.056208337785213114,-0.056208337785213114
382,-0.053582679497899736,-0.053582679497899736,-0.053582679497899736,-0.053582679497899736
383,-0.050904141575037226,-0.050904141575037226,-0.050904141575037226,-0.050904141575037226
384,-0.04817536741017148,-0.04817536741017148,-0.04817536741017148,-0.04817536741017148
385,-0.04539904997395464,-0.04539904997395464,-0.04539904997395464,-0.04539904997395464
386,-0.042577929156507245,-0.042577929156507245,-0.042577929156507245,-0.042577929156507245
387,-0.039714789063478056,-0.039714789063478056,-0.039714789063478056,-0.039714789063478056
388,-0.03681245526846781,-0.03681245526846781,-0.03681245526846781,-0.03681245526846781
389,-0.03387379202452916,-0.03387379202452916,-0.03387379202452916,-0.03387379202452916
390,-0.03090169943749479,-0.03090169943749479,-0.03090169943749479,-0.03090169943749479
391,-0.02789911060392299,-0.02789911060392299,-0.02789911060392299,-0.02789911060392299
392,-0.02486898871648556,-0.02486898871648556,-0.02486898871648556,-0.02486898871648556
393,-0.021814324139654184,-0.021814324139654184,-0.021814324139654184,-0.021814324139654184
394,-0.018738131458572404,-0.018738131458572404,-0.018738131458572404,-0.018738131458572404
395,-0.015643446504023047,-0.015643446504023047,-0.015643446504023047,-0.015643446504023047
396,-0.012533323356430402,-0.012533323356430402,-0.012533323356430402,-0.012533323356430402
397,-0.009410831331851428,-0.009410831331851428,-0.009410831331851428,-0.009410831331851428
398,-0.006279051952931352,-0.006279051952931352,-0.006279051952931352,-0.006279051952931352
399,-0.0031410759078128606,-0.0031410759078128606,-0.0031410759078128606,-0.0031410759078128606
400,-4.898587196589413e-17,-4.898587196589413e-17,-4.898587196589413e-17,-4.898587196589413e-17
401,0.0031410759078129404,0.0031410759078129404,0.0031410759078129404,0.0031410759078129404
402,0.006279051952931431,0.006279051952931431,0.006279051952931431,0.006279051952931431
403,0.009410831331851506,0.009410831331851506,0.009410831331851506,0.009410831331851506
404,0.012533323356430481,0.012533323356430481,0.012533323356430481,0.012533323356430481
405,0.015643446504023127,0.015643446504023127,0.015643446504023127,0.015643446504023127
406,0.018738131458572487,0.018738131458572487,0.018738131458572487,0.018738131458572487
407,0.02181432413965426,0.02181432413965426,0.02181432413965426,0.02181432413965426
408,0.024868988716485466,0.024868988716485466,0.024868988716485466,0.024868988716485466
409,0.027899110603922896,0.027899110603922896,0.027899110603922896,0.027899110603922896
410,0.030901699437494864,0.030901699437494864,0.030901699437494864,0.030901699437494864
411,0.033873792024529246,0.033873792024529246,0.033873792024529246,0.033873792024529246
412,0.03681245526846788,0.03681245526846788,0.03681245526846788,0.03681245526846788
413,0.03971478906347813,0.03971478906347813,0.03971478906347813,0.03971478906347813
414,0.04257792915650732,0.04257792915650732,0.04257792915650732,0.04257792915650732
415,0.04539904997395472,0.04539904997395472,0.04539904997395472,0.04539904997395472
416,0.048175367410171546,0.048175367410171546,0.048175367410171546,0.048175367410171546
417,0.050904141575036976,0.050904141575036976,0.050904141575036976,0.050904141575036976
418,0.0535826794978995,0.0535826794978995,0.0535826794978995,0.0535826794978995
419,0.05620833778521304,0.05620833778521304,0.05620833778521304,0.05620833778521304
420,0.05877852522924727,0.05877852522924727,0.05877852522924727,0.05877852522924727
421,0.0612907053652976,0.0612907053652976,0.0612907053652976,0.0612907053652976
422,0.06374239897486891,0.06374239897486891,0.06374239897486891,0.06374239897486891
423,0.0661311865323651,0.0661311865323651,0.0661311865323651,0.0661311865323651
424,0.06845471059286877,0.06845471059286877,0.06845471059286877,0.06845471059286877
425,0.07071067811865465,0.07071067811865465,0.07071067811865465,0.07071067811865465
426,0.07289686274214105,0.07289686274214105,0.07289686274214105,0.07289686274214105
427,0.07501110696304597,0.07501110696304597,0.07501110696304597,0.07501110696304597
428,0.07705132427757892,0.07705132427757892,0.07705132427757892,0.07705132427757892
429,0.07901550123756902,0.07901550123756902,0.07901550123756902,0.07901550123756902
430,0.08090169943749471,0.08090169943749471,0.08090169943749471,0.08090169943749471
431,0.08270805742745614,0.08270805742745614,0.08270805742745614,0.08270805742745614
432,0.08443279255020147,0.08443279255020147,0.08443279255020147,0.08443279255020147
433,0.08607420270039431,0.08607420270039431,0.08607420270039431,0.08607420270039431
434,0.0876306680043863,0.0876306680043863,0.0876306680043863,0.0876306680043863
435,0.08910065241883673,0.08910065241883673,0.08910065241883673,0.08910065241883673
436,0.09048270524660196,0.09048270524660196,0.09048270524660196,0.09048270524660196
437,0.09177546256839812,0.09177546256839812,0.09177546256839812,0.09177546256839812
438,0.09297764858882514,0.09297764858882514,0.09297764858882514,0.09297764858882514
439,0.09408807689542253,0.09408807689542253,0.09408807689542253,0.09408807689542253
440,0.09510565162951534,0.09510565162951534,0.09510565162951534,0.09510565162951534
441,0.09602936856769428,0.09602936856769428,0.09602936856769428,0.09602936856769428
442,0.0968583161128631,0.0968583161128631,0.0968583161128631,0.0968583161128631
443,0.09759167619387472,0.09759167619387472,0.09759167619387472,0.09759167619387472
444,0.0982287250728689,0.0982287250728689,0.0982287250728689,0.0982287250728689
445,0.09876883405951378,0.09876883405951378,0.09876883405951378,0.09876883405951378
446,0.0992114701314478,0.0992114701314478,0.0992114701314478,0.0992114701314478
447,0.099556196460308,0.099556196460308,0.099556196460308,0.099556196460308
448,0.09980267284282716,0.09980267284282716,0.09980267284282716,0.09980267284282716
449,0.09995065603657316,0.09995065603657316,0.09995065603657316,0.09995065603657316
450,0.1,0.1,0.1,0.1
451,0.09995065603657316,0.09995065603657316,0.09995065603657316,0.09995065603657316
452,0.09980267284282718,0.09980267284282718,0.09980267284282718,0.09980267284282718
453,0.099556196460308,0.099556196460308,0.099556196460308,0.099556196460308
454,0.09921147013144778,0.09921147013144778,0.09921147013144778,0.09921147013144778
455,0.09876883405951377,0.09876883405951377,0.09876883405951377,0.09876883405951377
456,0.09822872507286887,0.09822872507286887,0.09822872507286887,0.09822872507286887
457,0.09759167619387475,0.09759167619387475,0.09759167619387475,0.09759167619387475
458,0.09685831611286312,0.09685831611286312,0.09685831611286312,0.09685831611286312
459,0.09602936856769433,0.09602936856769433,0.09602936856769433,0.09602936856769433
460,0.09510565162951538,0.09510565162951538,0.09510565162951538,0.09510565162951538
461,0.09408807689542258,0.09408807689542258,0.09408807689542258,0.09408807689542258
462,0.09297764858882512,0.09297764858882512,0.09297764858882512,0.09297764858882512
463,0.0917754625683981,0.0917754625683981,0.0917754625683981,0.0917754625683981
464,0.09048270524660194,0.09048270524660194,0.09048270524660194,0.09048270524660194
465,0.08910065241883677,0.08910065241883677,0.08910065241883677,0.08910065241883677
466,0.08763066800438635,0.08763066800438635,0.08763066800438635,0.08763066800438635
467,0.08607420270039437,0.08607420270039437,0.08607420270039437,0.08607420270039437
468,0.08443279255020153,0.08443279255020153,0.08443279255020153,0.08443279255020153
469,0.08270805742745621,0.08270805742745621,0.08270805742745621,0.08270805742745621
470,0.08090169943749467,0.08090169943749467,0.08090169943749467,0.08090169943749467
471,0.07901550123756898,0.07901550123756898,0.07901550123756898,0.07901550123756898
472,0.07705132427757888,0.07705132427757888,0.07705132427757888,0.07705132427757888
473,0.07501110696304591,0.07501110696304591,0.07501110696304591,0.07501110696304591
474,0.07289686274214112,0.07289686274214112,0.07289686274214112,0.07289686274214112
475,0.07071067811865474,0.07071067811865474,0.07071067811865474,0.07071067811865474
476,0.06845471059286887,0.06845471059286887,0.06845471059286887,0.06845471059286887
477,0.0661311865323652,0.0661311865323652,0.0661311865323652,0.0661311865323652
478,0.06374239897486898,0.06374239897486898,0.06374239897486898,0.06374239897486898
479,0.06129070536529754,0.06129070536529754,0.06129070536529754,0.06129070536529754
480,0.05877852522924736,0.05877852522924736,0.05877852522924736,0.05877852522924736
481,0.05620833778521313,0.05620833778521313,0.05620833778521313,0.05620833778521313
482,0.05358267949789974,0.05358267949789974,0.05358267949789974,0.05358267949789974
483,0.05090414157503723,0.05090414157503723,0.05090414157503723,0.05090414157503723
484,0.04817536741017164,0.04817536741017164,0.04817536741017164,0.04817536741017164
485,0.045399049973954816,0.045399049973954816,0.045399049973954816,0.045399049973954816
486,0.04257792915650742,0.04257792915650742,0.04257792915650742,0.04257792915650742
487,0.03971478906347823,0.03971478906347823,0.03971478906347823,0.03971478906347823
488,0.03681245526846782,0.03681245526846782,0.03681245526846782,0.03681245526846782
489,0.03387379202452918,0.03387379202452918,0.03387379202452918,0.03387379202452918
490,0.030901699437494802,0.030901699437494802,0.030901699437494802,0.030901699437494802
491,0.027899110603923,0.027899110603923,0.027899110603923,0.027899110603923
492,0.024868988716485574,0.024868988716485574,0.024868988716485574,0.024868988716485574
493,0.021814324139654367,0.021814324139654367,0.021814324139654367,0.021814324139654367
494,0.018738131458572595,0.018738131458572595,0.018738131458572595,0.018738131458572595
495,0.015643446504023235,0.015643446504023235,0.015643446504023235,0.015643446504023235
496,0.012533323356430415,0.012533323356430415,0.012533323356430415,0.012533323356430415
497,0.00941083133185144,0.00941083133185144,0.00941083133185144,0.00941083133185144
498,0.006279051952931363,0.006279051952931363,0.006279051952931363,0.006279051952931363
499,0.003141075907812873,0.003141075907812873,0.003141075907812873,0.003141075907812873
500,6.123233995736766e-17,6.123233995736766e-17,6.123233995736766e-17,6.123233995736766e-17
501,-0.0031410759078127504,-0.0031410759078127504,-0.0031410759078127504,-0.0031410759078127504
502,-0.006279051952931241,-0.006279051952931241,-0.006279051952931241,-0.006279051952931241
503,-0.009410831331851319,-0.009410831331851319,-0.009410831331851319,-0.009410831331851319
504,-0.012533323356430294,-0.012533323356430294,-0.012533323356430294,-0.012533323356430294
505,-0.015643446504023117,-0.015643446504023117,-0.015643446504023117,-0.015643446504023117
506,-0.018738131458572473,-0.018738131458572473,-0.018738131458572473,-0.018738131458572473
507,-0.021814324139654246,-0.021814324139654246,-0.021814324139654246,-0.021814324139654246
508,-0.024868988716485452,-0.024868988716485452,-0.024868988716485452,-0.024868988716485452
509,-0.027899110603922885,-0.027899110603922885,-0.027899110603922885,-0.027899110603922885
510,-0.03090169943749485,-0.03090169943749485,-0.03090169943749485,-0.03090169943749485
511,-0.033873792024529066,-0.033873792024529066,-0.033873792024529066,-0.033873792024529066
512,-0.036812455268467874,-0.036812455268467874,-0.036812455268467874,-0.036812455268467874
513,-0.03971478906347796,-0.03971478906347796,-0.03971478906347796,-0.03971478906347796
514,-0.04257792915650731,-0.04257792915650731,-0.04257792915650731,-0.04257792915650731
515,-0.045399049973954546,-0.045399049973954546,-0.045399049973954546,-0.045399049973954546
516,-0.04817536741017153,-0.04817536741017153,-0.04817536741017153,-0.04817536741017153
517,-0.05090414157503697,-0.05090414157503697,-0.05090414157503697,-0.05090414157503697
518,-0.053582679497899646,-0.053582679497899646,-0.053582679497899646,-0.053582679497899646
519,-0.05620833778521317,-0.05620833778521317,-0.05620833778521317,-0.05620833778521317
520,-0.05877852522924726,-0.05877852522924726,-0.05877852522924726,-0.05877852522924726
521,-0.06129070536529773,-0.06129070536529773,-0.06129070536529773,-0.06129070536529773
522,-0.0637423989748689,-0.0637423989748689,-0.0637423989748689,-0.0637423989748689
523,-0.06613118653236524,-0.06613118653236524,-0.06613118653236524,-0.06613118653236524
524,-0.06845471059286877,-0.06845471059286877,-0.06845471059286877,-0.06845471059286877
525,-0.07071067811865477,-0.07071067811865477,-0.07071067811865477,-0.07071067811865477
526,-0.07289686274214129,-0.07289686274214129,-0.07289686274214129,-0.07289686274214129
527,-0.07501110696304596,-0.07501110696304596,-0.07501110696304596,-0.07501110696304596
528,-0.07705132427757902,-0.07705132427757902,-0.07705132427757902,-0.07705132427757902
529,-0.07901550123756901,-0.07901550123756901,-0.07901550123756901,-0.07901550123756901
530,-0.08090169943749481,-0.08090169943749481,-0.08090169943749481,-0.08090169943749481
531,-0.08270805742745614,-0.08270805742745614,-0.08270805742745614,-0.08270805742745614
532,-0.08443279255020156,-0.08443279255020156,-0.08443279255020156,-0.08443279255020156
533,-0.08607420270039431,-0.08607420270039431,-0.08607420270039431,-0.08607420270039431
534,-0.08763066800438639,-0.08763066800438639,-0.08763066800438639,-0.08763066800438639
535,-0.08910065241883688,-0.08910065241883688,-0.08910065241883688,-0.08910065241883688
536,-0.09048270524660196,-0.09048270524660196,-0.09048270524660196,-0.09048270524660196
537,-0.09177546256839819,-0.09177546256839819,-0.09177546256839819,-0.09177546256839819
538,-0.09297764858882514,-0.09297764858882514,-0.09297764858882514,-0.09297764858882514
539,-0.09408807689542259,-0.09408807689542259,-0.09408807689542259,-0.09408807689542259
540,-0.09510565162951534,-0.09510565162951534,-0.09510565162951534,-0.09510565162951534
541,-0.09602936856769434,-0.09602936856769434,-0.09602936856769434,-0.09602936856769434
542,-0.0968583161128631,-0.0968583161128631,-0.0968583161128631,-0.0968583161128631
543,-0.09759167619387477,-0.09759167619387477,-0.09759167619387477,-0.09759167619387477
544,-0.09822872507286891,-0.09822872507286891,-0.09822872507286891,-0.09822872507286891
545,-0.09876883405951378,-0.09876883405951378,-0.09876883405951378,-0.09876883405951378
546,-0.09921147013144782,-0.09921147013144782,-0.09921147013144782,-0.09921147013144782
547,-0.099556196460308,-0.099556196460308,-0.099556196460308,-0.099556196460308
548,-0.09980267284282718,-0.09980267284282718,-0.09980267284282718,-0.09980267284282718
549,-0.09995065603657316,-0.09995065603657316,-0.09995065603657316,-0.09995065603657316
550,-0.1,-0.1,-0.1,-0.1
551,-0.09995065603657316,-0.09995065603657316,-0.09995065603657316,-0.09995065603657316
552,-0.09980267284282716,-0.09980267284282716,-0.09980267284282716,-0.09980267284282716
553,-0.09955619646030799,-0.09955619646030799,-0.09955619646030799,-0.09955619646030799
554,-0.09921147013144778,-0.09921147013144778,-0.09921147013144778,-0.09921147013144778
555,-0.09876883405951375,-0.09876883405951375,-0.09876883405951375,-0.09876883405951375
556,-0.09822872507286888,-0.09822872507286888,-0.09822872507286888,-0.09822872507286888
557,-0.09759167619387471,-0.09759167619387471,-0.09759167619387471,-0.09759167619387471
558,-0.09685831611286312,-0.09685831611286312,-0.09685831611286312,-0.09685831611286312
559,-0.09602936856769428,-0.09602936856769428,-0.09602936856769428,-0.09602936856769428
560,-0.09510565162951538,-0.09510565162951538,-0.09510565162951538,-0.09510565162951538
561,-0.09408807689542252,-0.09408807689542252,-0.09408807689542252,-0.09408807689542252
562,-0.09297764858882505,-0.09297764858882505,-0.09297764858882505,-0.09297764858882505
563,-0.0917754625683981,-0.0917754625683981,-0.0917754625683981,-0.0917754625683981
564,-0.09048270524660186,-0.09048270524660186,-0.09048270524660186,-0.09048270524660186
565,-0.08910065241883679,-0.08910065241883679,-0.08910065241883679,-0.08910065241883679
566,-0.08763066800438628,-0.08763066800438628,-0.08763066800438628,-0.08763066800438628
567,-0.08607420270039438,-0.08607420270039438,-0.08607420270039438,-0.08607420270039438
568,-0.08443279255020143,-0.08443279255020143,-0.08443279255020143,-0.08443279255020143
569,-0.08270805742745622,-0.08270805742745622,-0.08270805742745622,-0.08270805742745622
570,-0.08090169943749469,-0.08090169943749469,-0.08090169943749469,-0.08090169943749469
571,-0.07901550123756888,-0.07901550123756888,-0.07901550123756888,-0.07901550123756888
572,-0.07705132427757888,-0.07705132427757888,-0.07705132427757888,-0.07705132427757888
573,-0.0750111069630458,-0.0750111069630458,-0.0750111069630458,-0.0750111069630458
574,-0.07289686274214113,-0.07289686274214113,-0.07289686274214113,-0.07289686274214113
575,-0.07071067811865461,-0.07071067811865461,-0.07071067811865461,-0.07071067811865461
576,-0.06845471059286887,-0.06845471059286887,-0.06845471059286887,-0.06845471059286887
577,-0.06613118653236534,-0.06613118653236534,-0.06613118653236534,-0.06613118653236534
578,-0.063742398974869,-0.063742398974869,-0.063742398974869,-0.063742398974869
579,-0.06129070536529783,-0.06129070536529783,-0.06129070536529783,-0.06129070536529783
580,-0.05877852522924737,-0.05877852522924737,-0.05877852522924737,-0.05877852522924737
581,-0.05620833778521328,-0.05620833778521328,-0.05620833778521328,-0.05620833778521328
582,-0.05358267949789976,-0.05358267949789976,-0.05358267949789976,-0.05358267949789976
583,-0.05090414157503739,-0.05090414157503739,-0.05090414157503739,-0.05090414157503739
584,-0.04817536741017166,-0.04817536741017166,-0.04817536741017166,-0.04817536741017166
585,-0.04539904997395498,-0.04539904997395498,-0.04539904997395498,-0.04539904997395498
586,-0.04257792915650743,-0.04257792915650743,-0.04257792915650743,-0.04257792915650743
587,-0.039714789063478084,-0.039714789063478084,-0.039714789063478084,-0.039714789063478084
588,-0.036812455268468,-0.036812455268468,-0.036812455268468,-0.036812455268468
589,-0.03387379202452919,-0.03387379202452919,-0.03387379202452919,-0.03387379202452919
590,-0.03090169943749498,-0.03090169943749498,-0.03090169943749498,-0.03090169943749498
591,-0.027899110603923014,-0.027899110603923014,-0.027899110603923014,-0.027899110603923014
592,-0.024868988716485754,-0.024868988716485754,-0.024868988716485754,-0.024868988716485754
593,-0.02181432413965438,-0.02181432413965438,-0.02181432413965438,-0.02181432413965438
594,-0.01873813145857278,-0.01873813145857278,-0.01873813145857278,-0.01873813145857278
595,-0.01564344650402325,-0.01564344650402325,-0.01564344650402325,-0.01564344650402325
596,-0.012533323356430426,-0.012533323356430426,-0.012533323356430426,-0.012533323356430426
597,-0.00941083133185163,-0.00941083133185163,-0.00941083133185163,-0.00941083133185163
598,-0.006279051952931375,-0.006279051952931375,-0.006279051952931375,-0.006279051952931375
599,-0.0031410759078130627,-0.0031410759078130627,-0.0031410759078130627,-0.0031410759078130627
600,-7.347880794884119e-17,-7.347880794884119e-17,-7.347880794884119e-17,-7.347880794884119e-17
601,0.003141075907812561,0.003141075907812561,0.003141075907812561,0.003141075907812561
602,0.0062790519529312295,0.0062790519529312295,0.0062790519529312295,0.0062790519529312295
603,0.00941083133185113,0.00941083133185113,0.00941083133185113,0.00941083133185113
604,0.012533323356430282,0.012533323356430282,0.012533323356430282,0.012533323356430282
605,0.015643446504023103,0.015643446504023103,0.015643446504023103,0.015643446504023103
606,0.018738131458572286,0.018738131458572286,0.018738131458572286,0.018738131458572286
607,0.021814324139654236,0.021814324139654236,0.021814324139654236,0.021814324139654236
608,0.02486898871648527,0.02486898871648527,0.02486898871648527,0.02486898871648527
609,0.027899110603922875,0.027899110603922875,0.027899110603922875,0.027899110603922875
610,0.030901699437494504,0.030901699437494504,0.030901699437494504,0.030901699437494504
611,0.03387379202452905,0.03387379202452905,0.03387379202452905,0.03387379202452905
612,0.03681245526846753,0.03681245526846753,0.03681245526846753,0.03681245526846753
613,0.039714789063477945,0.039714789063477945,0.039714789063477945,0.039714789063477945
614,0.042577929156507294,0.042577929156507294,0.042577929156507294,0.042577929156507294
615,0.04539904997395453,0.04539904997395453,0.04539904997395453,0.04539904997395453
616,0.048175367410171525,0.048175367410171525,0.048175367410171525,0.048175367410171525
617,0.050904141575036956,0.050904141575036956,0.050904141575036956,0.050904141575036956
618,0.05358267949789963,0.05358267949789963,0.05358267949789963,0.05358267949789963
619,0.05620833778521287,0.05620833778521287,0.05620833778521287,0.05620833778521287
620,0.05877852522924725,0.05877852522924725,0.05877852522924725,0.05877852522924725
621,0.06129070536529772,0.06129070536529772,0.06129070536529772,0.06129070536529772
622,0.06374239897486889,0.06374239897486889,0.06374239897486889,0.06374239897486889
623,0.06613118653236523,0.06613118653236523,0.06613118653236523,0.06613118653236523
624,0.06845471059286877,0.06845471059286877,0.06845471059286877,0.06845471059286877
625,0.07071067811865477,0.07071067811865477,0.07071067811865477,0.07071067811865477
626,0.07289686274214102,0.07289686274214102,0.07289686274214102,0.07289686274214102
627,0.07501110696304594,0.07501110696304594,0.07501110696304594,0.07501110696304594
628,0.07705132427757878,0.07705132427757878,0.07705132427757878,0.07705132427757878
629,0.07901550123756901,0.07901550123756901,0.07901550123756901,0.07901550123756901
630,0.08090169943749481,0.08090169943749481,0.08090169943749481,0.08090169943749481
631,0.08270805742745613,0.08270805742745613,0.08270805742745613,0.08270805742745613
632,0.08443279255020154,0.08443279255020154,0.08443279255020154,0.08443279255020154
633,0.0860742027003943,0.0860742027003943,0.0860742027003943,0.0860742027003943
634,0.08763066800438638,0.08763066800438638,0.08763066800438638,0.08763066800438638
635,0.08910065241883672,0.08910065241883672,0.08910065241883672,0.08910065241883672
636,0.09048270524660196,0.09048270524660196,0.09048270524660196,0.09048270524660196
637,0.09177546256839804,0.09177546256839804,0.09177546256839804,0.09177546256839804
638,0.09297764858882512,0.09297764858882512,0.09297764858882512,0.09297764858882512
639,0.09408807689542259,0.09408807689542259,0.09408807689542259,0.09408807689542259
640,0.09510565162951534,0.09510565162951534,0.09510565162951534,0.09510565162951534
641,0.09602936856769434,0.09602936856769434,0.09602936856769434,0.09602936856769434
642,0.0968583161128631,0.0968583161128631,0.0968583161128631,0.0968583161128631
643,0.09759167619387477,0.09759167619387477,0.09759167619387477,0.09759167619387477
644,0.09822872507286884,0.09822872507286884,0.09822872507286884,0.09822872507286884
645,0.09876883405951378,0.09876883405951378,0.09876883405951378,0.09876883405951378
646,0.09921147013144777,0.09921147013144777,0.09921147013144777,0.09921147013144777
647,0.099556196460308,0.099556196460308,0.099556196460308,0.099556196460308
648,0.09980267284282718,0.09980267284282718,0.09980267284282718,0.09980267284282718
649,0.09995065603657316,0.09995065603657316,0.09995065603657316,0.09995065603657316
650,0.1,0.1,0.1,0.1
651,0.09995065603657316,0.09995065603657316,0.09995065603657316,0.09995065603657316
652,0.09980267284282716,0.09980267284282716,0.09980267284282716,0.09980267284282716
653,0.09955619646030801,0.09955619646030801,0.09955619646030801,0.09955619646030801
654,0.09921147013144778,0.09921147013144778,0.09921147013144778,0.09921147013144778
655,0.09876883405951381,0.09876883405951381,0.09876883405951381,0.09876883405951381
656,0.09822872507286888,0.09822872507286888,0.09822872507286888,0.09822872507286888
657,0.09759167619387471,0.09759167619387471,0.09759167619387471,0.09759167619387471
658,0.09685831611286312,0.09685831611286312,0.09685831611286312,0.09685831611286312
659,0.09602936856769428,0.09602936856769428,0.09602936856769428,0.09602936856769428
660,0.0951056516295154,0.0951056516295154,0.0951056516295154,0.0951056516295154
661,0.09408807689542253,0.09408807689542253,0.09408807689542253,0.09408807689542253
662,0.09297764858882518,0.09297764858882518,0.09297764858882518,0.09297764858882518
663,0.0917754625683981,0.0917754625683981,0.0917754625683981,0.0917754625683981
664,0.09048270524660187,0.09048270524660187,0.09048270524660187,0.09048270524660187
665,0.08910065241883679,0.08910065241883679,0.08910065241883679,0.08910065241883679
666,0.08763066800438629,0.08763066800438629,0.08763066800438629,0.08763066800438629
667,0.08607420270039438,0.08607420270039438,0.08607420270039438,0.08607420270039438
668,0.08443279255020145,0.08443279255020145,0.08443279255020145,0.08443279255020145
669,0.08270805742745622,0.08270805742745622,0.08270805742745622,0.08270805742745622
670,0.0809016994374947,0.0809016994374947,0.0809016994374947,0.0809016994374947
671,0.0790155012375691,0.0790155012375691,0.0790155012375691,0.0790155012375691
672,0.07705132427757888,0.07705132427757888,0.07705132427757888,0.07705132427757888
673,0.0750111069630458,0.0750111069630458,0.0750111069630458,0.0750111069630458
674,0.07289686274214113,0.07289686274214113,0.07289686274214113,0.07289686274214113
675,0.07071067811865463,0.07071067811865463,0.07071067811865463,0.07071067811865463
676,0.06845471059286888,0.06845471059286888,0.06845471059286888,0.06845471059286888
677,0.06613118653236508,0.06613118653236508,0.06613118653236508,0.06613118653236508
678,0.06374239897486901,0.06374239897486901,0.06374239897486901,0.06374239897486901
679,0.061290705365297564,0.061290705365297564,0.061290705365297564,0.061290705365297564
680,0.05877852522924738,0.05877852522924738,0.05877852522924738,0.05877852522924738
681,0.056208337785212996,0.056208337785212996,0.056208337785212996,0.056208337785212996
682,0.053582679497899466,0.053582679497899466,0.053582679497899466,0.053582679497899466
683,0.0509041415750371,0.0509041415750371,0.0509041415750371,0.0509041415750371
684,0.04817536741017135,0.04817536741017135,0.04817536741017135,0.04817536741017135
685,0.04539904997395468,0.04539904997395468,0.04539904997395468,0.04539904997395468
686,0.04257792915650712,0.04257792915650712,0.04257792915650712,0.04257792915650712
687,0.03971478906347809,0.03971478906347809,0.03971478906347809,0.03971478906347809
688,0.03681245526846768,0.03681245526846768,0.03681245526846768,0.03681245526846768
689,0.033873792024529205,0.033873792024529205,0.033873792024529205,0.033873792024529205
690,0.030901699437494656,0.030901699437494656,0.030901699437494656,0.030901699437494656
691,0.027899110603922684,0.027899110603922684,0.027899110603922684,0.027899110603922684
692,0.024868988716485425,0.024868988716485425,0.024868988716485425,0.024868988716485425
693,0.021814324139654045,0.021814324139654045,0.021814324139654045,0.021814324139654045
694,0.018738131458572442,0.018738131458572442,0.018738131458572442,0.018738131458572442
695,0.01564344650402291,0.01564344650402291,0.01564344650402291,0.01564344650402291
696,0.01253332335643044,0.01253332335643044,0.01253332335643044,0.01253332335643044
697,0.009410831331851287,0.009410831331851287,0.009410831331851287,0.009410831331851287
698,0.006279051952931387,0.006279051952931387,0.006279051952931387,0.006279051952931387
699,0.0031410759078127196,0.0031410759078127196,0.0031410759078127196,0.0031410759078127196
700,-2.695460919397354e-16,-2.695460919397354e-16,-2.695460919397354e-16,-2.695460919397354e-16
701,-0.0031410759078129035,-0.0031410759078129035,-0.0031410759078129035,-0.0031410759078129035
702,-0.006279051952931571,-0.006279051952931571,-0.006279051952931571,-0.006279051952931571
703,-0.009410831331851471,-0.009410831331851471,-0.009410831331851471,-0.009410831331851471
704,-0.012533323356430268,-0.012533323356430268,-0.012533323356430268,-0.012533323356430268
705,-0.01564344650402274,-0.01564344650402274,-0.01564344650402274,-0.01564344650402274
706,-0.018738131458572276,-0.018738131458572276,-0.018738131458572276,-0.018738131458572276
707,-0.021814324139654225,-0.021814324139654225,-0.021814324139654225,-0.021814324139654225
708,-0.024868988716485258,-0.024868988716485258,-0.024868988716485258,-0.024868988716485258
709,-0.02789911060392286,-0.02789911060392286,-0.02789911060392286,-0.02789911060392286
710,-0.03090169943749449,-0.03090169943749449,-0.03090169943749449,-0.03090169943749449
711,-0.03387379202452904,-0.03387379202452904,-0.03387379202452904,-0.03387379202452904
712,-0.03681245526846751,-0.03681245526846751,-0.03681245526846751,-0.03681245526846751
713,-0.03971478906347794,-0.03971478906347794,-0.03971478906347794,-0.03971478906347794
714,-0.04257792915650696,-0.04257792915650696,-0.04257792915650696,-0.04257792915650696
715,-0.045399049973954525,-0.045399049973954525,-0.045399049973954525,-0.045399049973954525
716,-0.04817536741017151,-0.04817536741017151,-0.04817536741017151,-0.04817536741017151
717,-0.05090414157503695,-0.05090414157503695,-0.05090414157503695,-0.05090414157503695
718,-0.053582679497899625,-0.053582679497899625,-0.053582679497899625,-0.053582679497899625
719,-0.056208337785212864,-0.056208337785212864,-0.056208337785212864,-0.056208337785212864
720,-0.05877852522924725,-0.05877852522924725,-0.05877852522924725,-0.05877852522924725
721,-0.06129070536529743,-0.06129070536529743,-0.06129070536529743,-0.06129070536529743
722,-0.06374239897486887,-0.06374239897486887,-0.06374239897486887,-0.06374239897486887
723,-0.06613118653236495,-0.06613118653236495,-0.06613118653236495,-0.06613118653236495
724,-0.06845471059286876,-0.06845471059286876,-0.06845471059286876,-0.06845471059286876
725,-0.07071067811865477,-0.07071067811865477,-0.07071067811865477,-0.07071067811865477
726,-0.07289686274214102,-0.07289686274214102,-0.07289686274214102,-0.07289686274214102
727,-0.07501110696304593,-0.07501110696304593,-0.07501110696304593,-0.07501110696304593
728,-0.07705132427757878,-0.07705132427757878,-0.07705132427757878,-0.07705132427757878
729,-0.07901550123756901,-0.07901550123756901,-0.07901550123756901,-0.07901550123756901
730,-0.08090169943749459,-0.08090169943749459,-0.08090169943749459,-0.08090169943749459
731,-0.08270805742745613,-0.08270805742745613,-0.08270805742745613,-0.08270805742745613
732,-0.08443279255020135,-0.08443279255020135,-0.08443279255020135,-0.08443279255020135
733,-0.08607420270039429,-0.08607420270039429,-0.08607420270039429,-0.08607420270039429
734,-0.08763066800438638,-0.08763066800438638,-0.08763066800438638,-0.08763066800438638
735,-0.0891006524188367,-0.0891006524188367,-0.0891006524188367,-0.0891006524188367
736,-0.09048270524660196,-0.09048270524660196,-0.09048270524660196,-0.09048270524660196
737,-0.09177546256839803,-0.09177546256839803,-0.09177546256839803,-0.09177546256839803
738,-0.09297764858882512,-0.09297764858882512,-0.09297764858882512,-0.09297764858882512
739,-0.09408807689542248,-0.09408807689542248,-0.09408807689542248,-0.09408807689542248
740,-0.09510565162951534,-0.09510565162951534,-0.09510565162951534,-0.09510565162951534
741,-0.09602936856769423,-0.09602936856769423,-0.09602936856769423,-0.09602936856769423
742,-0.0968583161128631,-0.0968583161128631,-0.0968583161128631,-0.0968583161128631
743,-0.09759167619387475,-0.09759167619387475,-0.09759167619387475,-0.09759167619387475
744,-0.09822872507286884,-0.09822872507286884,-0.09822872507286884,-0.09822872507286884
745,-0.09876883405951378,-0.09876883405951378,-0.09876883405951378,-0.09876883405951378
746,-0.09921147013144777,-0.09921147013144777,-0.09921147013144777,-0.09921147013144777
747,-0.099556196460308,-0.099556196460308,-0.099556196460308,-0.099556196460308
748,-0.09980267284282715,-0.09980267284282715,-0.09980267284282715,-0.09980267284282715
749,-0.09995065603657316,-0.09995065603657316,-0.09995065603657316,-0.09995065603657316
750,-0.1,-0.1,-0.1,-0.1
751,-0.09995065603657316,-0.09995065603657316,-0.09995065603657316,-0.09995065603657316
752,-0.09980267284282716,-0.09980267284282716,-0.09980267284282716,-0.09980267284282716
753,-0.09955619646030801,-0.09955619646030801,-0.09955619646030801,-0.09955619646030801
754,-0.09921147013144778,-0.09921147013144778,-0.09921147013144778,-0.09921147013144778
755,-0.09876883405951381,-0.09876883405951381,-0.09876883405951381,-0.09876883405951381
756,-0.09822872507286888,-0.09822872507286888,-0.09822872507286888,-0.09822872507286888
757,-0.0975916761938748,-0.0975916761938748,-0.0975916761938748,-0.0975916761938748
758,-0.09685831611286314,-0.09685831611286314,-0.09685831611286314,-0.09685831611286314
759,-0.09602936856769428,-0.09602936856769428,-0.09602936856769428,-0.09602936856769428
760,-0.0951056516295154,-0.0951056516295154,-0.0951056516295154,-0.0951056516295154
761,-0.09408807689542253,-0.09408807689542253,-0.09408807689542253,-0.09408807689542253
762,-0.09297764858882519,-0.09297764858882519,-0.09297764858882519,-0.09297764858882519
763,-0.09177546256839811,-0.09177546256839811,-0.09177546256839811,-0.09177546256839811
764,-0.09048270524660203,-0.09048270524660203,-0.09048270524660203,-0.09048270524660203
765,-0.0891006524188368,-0.0891006524188368,-0.0891006524188368,-0.0891006524188368
766,-0.08763066800438646,-0.08763066800438646,-0.08763066800438646,-0.08763066800438646
767,-0.0860742027003944,-0.0860742027003944,-0.0860742027003944,-0.0860742027003944
768,-0.08443279255020145,-0.08443279255020145,-0.08443279255020145,-0.08443279255020145
769,-0.08270805742745624,-0.08270805742745624,-0.08270805742745624,-0.08270805742745624
770,-0.0809016994374947,-0.0809016994374947,-0.0809016994374947,-0.0809016994374947
771,-0.07901550123756912,-0.07901550123756912,-0.07901550123756912,-0.07901550123756912
772,-0.0770513242775789,-0.0770513242775789,-0.0770513242775789,-0.0770513242775789
773,-0.07501110696304605,-0.07501110696304605,-0.07501110696304605,-0.07501110696304605
774,-0.07289686274214115,-0.07289686274214115,-0.07289686274214115,-0.07289686274214115
775,-0.07071067811865488,-0.07071067811865488,-0.07071067811865488,-0.07071067811865488
776,-0.06845471059286888,-0.06845471059286888,-0.06845471059286888,-0.06845471059286888
777,-0.06613118653236509,-0.06613118653236509,-0.06613118653236509,-0.06613118653236509
778,-0.06374239897486902,-0.06374239897486902,-0.06374239897486902,-0.06374239897486902
779,-0.06129070536529757,-0.06129070536529757,-0.06129070536529757,-0.06129070536529757
780,-0.0587785252292474,-0.0587785252292474,-0.0587785252292474,-0.0587785252292474
781,-0.056208337785213,-0.056208337785213,-0.056208337785213,-0.056208337785213
782,-0.05358267949789978,-0.05358267949789978,-0.05358267949789978,-0.05358267949789978
783,-0.050904141575037115,-0.050904141575037115,-0.050904141575037115,-0.050904141575037115
784,-0.04817536741017168,-0.04817536741017168,-0.04817536741017168,-0.04817536741017168
785,-0.04539904997395469,-0.04539904997395469,-0.04539904997395469,-0.04539904997395469
786,-0.04257792915650713,-0.04257792915650713,-0.04257792915650713,-0.04257792915650713
787,-0.039714789063478105,-0.039714789063478105,-0.039714789063478105,-0.039714789063478105
788,-0.036812455268467686,-0.036812455268467686,-0.036812455268467686,-0.036812455268467686
789,-0.03387379202452922,-0.03387379202452922,-0.03387379202452922,-0.03387379202452922
790,-0.03090169943749467,-0.03090169943749467,-0.03090169943749467,-0.03090169943749467
791,-0.027899110603923034,-0.027899110603923034,-0.027899110603923034,-0.027899110603923034
792,-0.024868988716485435,-0.024868988716485435,-0.024868988716485435,-0.024868988716485435
793,-0.021814324139654402,-0.021814324139654402,-0.021814324139654402,-0.021814324139654402
794,-0.018738131458572456,-0.018738131458572456,-0.018738131458572456,-0.018738131458572456
795,-0.015643446504022922,-0.015643446504022922,-0.015643446504022922,-0.015643446504022922
796,-0.012533323356430452,-0.012533323356430452,-0.012533323356430452,-0.012533323356430452
797,-0.0094108313318513,-0.0094108313318513,-0.0094108313318513,-0.0094108313318513
798,-0.0062790519529314,-0.0062790519529314,-0.0062790519529314,-0.0062790519529314
799,-0.0031410759078127322,-0.0031410759078127322,-0.0031410759078127322,-0.0031410759078127322
800,-9.797174393178826e-17,-9.797174393178826e-17,-9.797174393178826e-17,-9.797174393178826e-17
801,0.003141075907812891,0.003141075907812891,0.003141075907812891,0.003141075907812891
802,0.006279051952931558,0.006279051952931558,0.006279051952931558,0.006279051952931558
803,0.009410831331851457,0.009410831331851457,0.009410831331851457,0.009410831331851457
804,0.01253332335643061,0.01253332335643061,0.01253332335643061,0.01253332335643061
805,0.01564344650402308,0.01564344650402308,0.01564344650402308,0.01564344650402308
806,0.018738131458572612,0.018738131458572612,0.018738131458572612,0.018738131458572612
807,0.021814324139654215,0.021814324139654215,0.021814324139654215,0.021814324139654215
808,0.02486898871648559,0.02486898871648559,0.02486898871648559,0.02486898871648559
809,0.02789911060392285,0.02789911060392285,0.02789911060392285,0.02789911060392285
810,0.03090169943749482,0.03090169943749482,0.03090169943749482,0.03090169943749482
811,0.033873792024529364,0.033873792024529364,0.033873792024529364,0.033873792024529364
812,0.03681245526846784,0.03681245526846784,0.03681245526846784,0.03681245526846784
813,0.03971478906347825,0.03971478906347825,0.03971478906347825,0.03971478906347825
814,0.04257792915650727,0.04257792915650727,0.04257792915650727,0.04257792915650727
815,0.04539904997395483,0.04539904997395483,0.04539904997395483,0.04539904997395483
816,0.048175367410171505,0.048175367410171505,0.048175367410171505,0.048175367410171505
817,0.05090414157503725,0.05090414157503725,0.05090414157503725,0.05090414157503725
818,0.05358267949789961,0.05358267949789961,0.05358267949789961,0.05358267949789961
819,0.05620833778521314,0.05620833778521314,0.05620833778521314,0.05620833778521314
820,0.058778525229247515,0.058778525229247515,0.058778525229247515,0.058778525229247515
821,0.061290705365297696,0.061290705365297696,0.061290705365297696,0.061290705365297696
822,0.06374239897486915,0.06374239897486915,0.06374239897486915,0.06374239897486915
823,0.0661311865323652,0.0661311865323652,0.0661311865323652,0.0661311865323652
824,0.068454710592869,0.068454710592869,0.068454710592869,0.068454710592869
825,0.07071067811865475,0.07071067811865475,0.07071067811865475,0.07071067811865475
826,0.07289686274214126,0.07289686274214126,0.07289686274214126,0.07289686274214126
827,0.07501110696304593,0.07501110696304593,0.07501110696304593,0.07501110696304593
828,0.07705132427757899,0.07705132427757899,0.07705132427757899,0.07705132427757899
829,0.07901550123756922,0.07901550123756922,0.07901550123756922,0.07901550123756922
830,0.0809016994374948,0.0809016994374948,0.0809016994374948,0.0809016994374948
831,0.08270805742745632,0.08270805742745632,0.08270805742745632,0.08270805742745632
832,0.08443279255020153,0.08443279255020153,0.08443279255020153,0.08443279255020153
833,0.08607420270039429,0.08607420270039429,0.08607420270039429,0.08607420270039429
834,0.0876306680043862,0.0876306680043862,0.0876306680043862,0.0876306680043862
835,0.0891006524188367,0.0891006524188367,0.0891006524188367,0.0891006524188367
836,0.09048270524660179,0.09048270524660179,0.09048270524660179,0.09048270524660179
837,0.09177546256839803,0.09177546256839803,0.09177546256839803,0.09177546256839803
838,0.09297764858882512,0.09297764858882512,0.09297764858882512,0.09297764858882512
839,0.09408807689542246,0.09408807689542246,0.09408807689542246,0.09408807689542246
840,0.09510565162951534,0.09510565162951534,0.09510565162951534,0.09510565162951534
841,0.09602936856769423,0.09602936856769423,0.09602936856769423,0.09602936856769423
842,0.09685831611286308,0.09685831611286308,0.09685831611286308,0.09685831611286308
843,0.09759167619387467,0.09759167619387467,0.09759167619387467,0.09759167619387467
844,0.09822872507286884,0.09822872507286884,0.09822872507286884,0.09822872507286884
845,0.09876883405951377,0.09876883405951377,0.09876883405951377,0.09876883405951377
846,0.09921147013144777,0.09921147013144777,0.09921147013144777,0.09921147013144777
847,0.099556196460308,0.099556196460308,0.099556196460308,0.099556196460308
848,0.09980267284282715,0.09980267284282715,0.09980267284282715,0.09980267284282715
849,0.09995065603657316,0.09995065603657316,0.09995065603657316,0.09995065603657316
850,0.1,0.1,0.1,0.1
851,0.09995065603657316,0.09995065603657316,0.09995065603657316,0.09995065603657316
852,0.09980267284282718,0.09980267284282718,0.09980267284282718,0.09980267284282718
853,0.09955619646030801,0.09955619646030801,0.09955619646030801,0.09955619646030801
854,0.0992114701314478,0.0992114701314478,0.0992114701314478,0.0992114701314478
855,0.09876883405951381,0.09876883405951381,0.09876883405951381,0.09876883405951381
856,0.09822872507286888,0.09822872507286888,0.09822872507286888,0.09822872507286888
857,0.0975916761938748,0.0975916761938748,0.0975916761938748,0.0975916761938748
858,0.09685831611286314,0.09685831611286314,0.09685831611286314,0.09685831611286314
859,0.0960293685676944,0.0960293685676944,0.0960293685676944,0.0960293685676944
860,0.0951056516295154,0.0951056516295154,0.0951056516295154,0.0951056516295154
861,0.09408807689542265,0.09408807689542265,0.09408807689542265,0.09408807689542265
862,0.09297764858882519,0.09297764858882519,0.09297764858882519,0.09297764858882519
863,0.09177546256839811,0.09177546256839811,0.09177546256839811,0.09177546256839811
864,0.09048270524660203,0.09048270524660203,0.09048270524660203,0.09048270524660203
865,0.0891006524188368,0.0891006524188368,0.0891006524188368,0.0891006524188368
866,0.08763066800438646,0.08763066800438646,0.08763066800438646,0.08763066800438646
867,0.0860742027003944,0.0860742027003944,0.0860742027003944,0.0860742027003944
868,0.08443279255020164,0.08443279255020164,0.08443279255020164,0.08443279255020164
869,0.08270805742745624,0.08270805742745624,0.08270805742745624,0.08270805742745624
870,0.08090169943749492,0.08090169943749492,0.08090169943749492,0.08090169943749492
871,0.07901550123756912,0.07901550123756912,0.07901550123756912,0.07901550123756912
872,0.07705132427757891,0.07705132427757891,0.07705132427757891,0.07705132427757891
873,0.07501110696304607,0.07501110696304607,0.07501110696304607,0.07501110696304607
874,0.07289686274214116,0.07289686274214116,0.07289686274214116,0.07289686274214116
875,0.07071067811865489,0.07071067811865489,0.07071067811865489,0.07071067811865489
876,0.0684547105928689,0.0684547105928689,0.0684547105928689,0.0684547105928689
877,0.06613118653236537,0.06613118653236537,0.06613118653236537,0.06613118653236537
878,0.06374239897486904,0.06374239897486904,0.06374239897486904,0.06374239897486904
879,0.06129070536529786,0.06129070536529786,0.06129070536529786,0.06129070536529786
880,0.058778525229247404,0.058778525229247404,0.058778525229247404,0.058778525229247404
881,0.05620833778521302,0.05620833778521302,0.05620833778521302,0.05620833778521302
882,0.05358267949789979,0.05358267949789979,0.05358267949789979,0.05358267949789979
883,0.05090414157503712,0.05090414157503712,0.05090414157503712,0.05090414157503712
884,0.048175367410171685,0.048175367410171685,0.048175367410171685,0.048175367410171685
885,0.0453990499739547,0.0453990499739547,0.0453990499739547,0.0453990499739547
886,0.04257792915650746,0.04257792915650746,0.04257792915650746,0.04257792915650746
887,0.03971478906347811,0.03971478906347811,0.03971478906347811,0.03971478906347811
888,0.0368124552684677,0.0368124552684677,0.0368124552684677,0.0368124552684677
889,0.033873792024529226,0.033873792024529226,0.033873792024529226,0.033873792024529226
890,0.03090169943749468,0.03090169943749468,0.03090169943749468,0.03090169943749468
891,0.02789911060392305,0.02789911060392305,0.02789911060392305,0.02789911060392305
892,0.02486898871648545,0.02486898871648545,0.02486898871648545,0.02486898871648545
893,0.021814324139654416,0.021814324139654416,0.021814324139654416,0.021814324139654416
894,0.018738131458572466,0.018738131458572466,0.018738131458572466,0.018738131458572466
895,0.015643446504023283,0.015643446504023283,0.015643446504023283,0.015643446504023283
896,0.012533323356430462,0.012533323356430462,0.012533323356430462,0.012533323356430462
897,0.009410831331851312,0.009410831331851312,0.009410831331851312,0.009410831331851312
898,0.0062790519529314125,0.0062790519529314125,0.0062790519529314125,0.0062790519529314125
899,0.003141075907812744,0.003141075907812744,0.003141075907812744,0.003141075907812744
900,1.1021821192326179e-16,1.1021821192326179e-16,1.1021821192326179e-16,1.1021821192326179e-16
901,-0.0031410759078128792,-0.0031410759078128792,-0.0031410759078128792,-0.0031410759078128792
902,-0.006279051952931192,-0.006279051952931192,-0.006279051952931192,-0.006279051952931192
903,-0.009410831331851445,-0.009410831331851445,-0.009410831331851445,-0.009410831331851445
904,-0.012533323356430245,-0.012533323356430245,-0.012533323356430245,-0.012533323356430245
905,-0.015643446504023065,-0.015643446504023065,-0.015643446504023065,-0.015643446504023065
906,-0.018738131458572598,-0.018738131458572598,-0.018738131458572598,-0.018738131458572598
907,-0.0218143241396542,-0.0218143241396542,-0.0218143241396542,-0.0218143241396542
908,-0.024868988716485577,-0.024868988716485577,-0.024868988716485577,-0.024868988716485577
909,-0.027899110603922833,-0.027899110603922833,-0.027899110603922833,-0.027899110603922833
910,-0.03090169943749481,-0.03090169943749481,-0.03090169943749481,-0.03090169943749481
911,-0.03387379202452902,-0.03387379202452902,-0.03387379202452902,-0.03387379202452902
912,-0.036812455268467825,-0.036812455268467825,-0.036812455268467825,-0.036812455268467825
913,-0.03971478906347792,-0.03971478906347792,-0.03971478906347792,-0.03971478906347792
914,-0.042577929156507266,-0.042577929156507266,-0.042577929156507266,-0.042577929156507266
915,-0.04539904997395482,-0.04539904997395482,-0.04539904997395482,-0.04539904997395482
916,-0.0481753674101715,-0.0481753674101715,-0.0481753674101715,-0.0481753674101715
917,-0.05090414157503723,-0.05090414157503723,-0.05090414157503723,-0.05090414157503723
918,-0.053582679497899605,-0.053582679497899605,-0.053582679497899605,-0.053582679497899605
919,-0.05620833778521313,-0.05620833778521313,-0.05620833778521313,-0.05620833778521313
920,-0.05877852522924723,-0.05877852522924723,-0.05877852522924723,-0.05877852522924723
921,-0.06129070536529768,-0.06129070536529768,-0.06129070536529768,-0.06129070536529768
922,-0.06374239897486886,-0.06374239897486886,-0.06374239897486886,-0.06374239897486886
923,-0.0661311865323652,-0.0661311865323652,-0.0661311865323652,-0.0661311865323652
924,-0.06845471059286899,-0.06845471059286899,-0.06845471059286899,-0.06845471059286899
925,-0.07071067811865474,-0.07071067811865474,-0.07071067811865474,-0.07071067811865474
926,-0.07289686274214124,-0.07289686274214124,-0.07289686274214124,-0.07289686274214124
927,-0.07501110696304591,-0.07501110696304591,-0.07501110696304591,-0.07501110696304591
928,-0.07705132427757899,-0.07705132427757899,-0.07705132427757899,-0.07705132427757899
929,-0.07901550123756898,-0.07901550123756898,-0.07901550123756898,-0.07901550123756898
930,-0.08090169943749478,-0.08090169943749478,-0.08090169943749478,-0.08090169943749478
931,-0.08270805742745611,-0.08270805742745611,-0.08270805742745611,-0.08270805742745611
932,-0.08443279255020153,-0.08443279255020153,-0.08443279255020153,-0.08443279255020153
933,-0.08607420270039447,-0.08607420270039447,-0.08607420270039447,-0.08607420270039447
934,-0.08763066800438636,-0.08763066800438636,-0.08763066800438636,-0.08763066800438636
935,-0.08910065241883686,-0.08910065241883686,-0.08910065241883686,-0.08910065241883686
936,-0.09048270524660194,-0.09048270524660194,-0.09048270524660194,-0.09048270524660194
937,-0.09177546256839816,-0.09177546256839816,-0.09177546256839816,-0.09177546256839816
938,-0.09297764858882512,-0.09297764858882512,-0.09297764858882512,-0.09297764858882512
939,-0.09408807689542259,-0.09408807689542259,-0.09408807689542259,-0.09408807689542259
940,-0.09510565162951544,-0.09510565162951544,-0.09510565162951544,-0.09510565162951544
941,-0.09602936856769433,-0.09602936856769433,-0.09602936856769433,-0.09602936856769433
942,-0.09685831611286316,-0.09685831611286316,-0.09685831611286316,-0.09685831611286316
943,-0.09759167619387475,-0.09759167619387475,-0.09759167619387475,-0.09759167619387475
944,-0.0982287250728689,-0.0982287250728689,-0.0982287250728689,-0.0982287250728689
945,-0.09876883405951377,-0.09876883405951377,-0.09876883405951377,-0.09876883405951377
946,-0.09921147013144781,-0.09921147013144781,-0.09921147013144781,-0.09921147013144781
947,-0.099556196460308,-0.099556196460308,-0.099556196460308,-0.099556196460308
948,-0.09980267284282718,-0.09980267284282718,-0.09980267284282718,-0.09980267284282718
949,-0.09995065603657316,-0.09995065603657316,-0.09995065603657316,-0.09995065603657316
950,-0.1,-0.1,-0.1,-0.1
951,-0.09995065603657316,-0.09995065603657316,-0.09995065603657316,-0.09995065603657316
952,-0.09980267284282716,-0.09980267284282716,-0.09980267284282716,-0.09980267284282716
953,-0.099556196460308,-0.099556196460308,-0.099556196460308,-0.099556196460308
954,-0.0992114701314478,-0.0992114701314478,-0.0992114701314478,-0.0992114701314478
955,-0.09876883405951375,-0.09876883405951375,-0.09876883405951375,-0.09876883405951375
956,-0.09822872507286888,-0.09822872507286888,-0.09822872507286888,-0.09822872507286888
957,-0.09759167619387471,-0.09759167619387471,-0.09759167619387471,-0.09759167619387471
958,-0.09685831611286305,-0.09685831611286305,-0.09685831611286305,-0.09685831611286305
959,-0.09602936856769428,-0.09602936856769428,-0.09602936856769428,-0.09602936856769428
960,-0.0951056516295154,-0.0951056516295154,-0.0951056516295154,-0.0951056516295154
961,-0.09408807689542266,-0.09408807689542266,-0.09408807689542266,-0.09408807689542266
962,-0.0929776485888252,-0.0929776485888252,-0.0929776485888252,-0.0929776485888252
963,-0.09177546256839825,-0.09177546256839825,-0.09177546256839825,-0.09177546256839825
964,-0.09048270524660204,-0.09048270524660204,-0.09048270524660204,-0.09048270524660204
965,-0.08910065241883697,-0.08910065241883697,-0.08910065241883697,-0.08910065241883697
966,-0.08763066800438647,-0.08763066800438647,-0.08763066800438647,-0.08763066800438647
967,-0.0860742027003944,-0.0860742027003944,-0.0860742027003944,-0.0860742027003944
968,-0.08443279255020165,-0.08443279255020165,-0.08443279255020165,-0.08443279255020165
969,-0.08270805742745624,-0.08270805742745624,-0.08270805742745624,-0.08270805742745624
970,-0.08090169943749492,-0.08090169943749492,-0.08090169943749492,-0.08090169943749492
971,-0.07901550123756912,-0.07901550123756912,-0.07901550123756912,-0.07901550123756912
972,-0.07705132427757914,-0.07705132427757914,-0.07705132427757914,-0.07705132427757914
973,-0.07501110696304608,-0.07501110696304608,-0.07501110696304608,-0.07501110696304608
974,-0.0728968627421414,-0.0728968627421414,-0.0728968627421414,-0.0728968627421414
975,-0.0707106781186549,-0.0707106781186549,-0.0707106781186549,-0.0707106781186549
976,-0.06845471059286891,-0.06845471059286891,-0.06845471059286891,-0.06845471059286891
977,-0.06613118653236537,-0.06613118653236537,-0.06613118653236537,-0.06613118653236537
978,-0.06374239897486904,-0.06374239897486904,-0.06374239897486904,-0.06374239897486904
979,-0.061290705365297876,-0.061290705365297876,-0.061290705365297876,-0.061290705365297876
980,-0.05877852522924742,-0.05877852522924742,-0.05877852522924742,-0.05877852522924742
981,-0.05620833778521333,-0.05620833778521333,-0.05620833778521333,-0.05620833778521333
982,-0.0535826794978998,-0.0535826794978998,-0.0535826794978998,-0.0535826794978998
983,-0.050904141575037136,-0.050904141575037136,-0.050904141575037136,-0.050904141575037136
984,-0.0481753674101717,-0.0481753674101717,-0.0481753674101717,-0.0481753674101717
985,-0.04539904997395471,-0.04539904997395471,-0.04539904997395471,-0.04539904997395471
986,-0.042577929156507474,-0.042577929156507474,-0.042577929156507474,-0.042577929156507474
987,-0.039714789063478126,-0.039714789063478126,-0.039714789063478126,-0.039714789063478126
988,-0.03681245526846804,-0.03681245526846804,-0.03681245526846804,-0.03681245526846804
989,-0.03387379202452924,-0.03387379202452924,-0.03387379202452924,-0.03387379202452924
990,-0.03090169943749503,-0.03090169943749503,-0.03090169943749503,-0.03090169943749503
991,-0.027899110603923062,-0.027899110603923062,-0.027899110603923062,-0.027899110603923062
992,-0.024868988716485463,-0.024868988716485463,-0.024868988716485463,-0.024868988716485463
993,-0.021814324139654426,-0.021814324139654426,-0.021814324139654426,-0.021814324139654426
994,-0.018738131458572477,-0.018738131458572477,-0.018738131458572477,-0.018738131458572477
995,-0.015643446504023297,-0.015643446504023297,-0.015643446504023297,-0.015643446504023297
996,-0.012533323356430476,-0.012533323356430476,-0.012533323356430476,-0.012533323356430476
997,-0.009410831331851678,-0.009410831331851678,-0.009410831331851678,-0.009410831331851678
998,-0.0062790519529314255,-0.0062790519529314255,-0.0062790519529314255,-0.0062790519529314255
999,-0.0031410759078131117,-0.0031410759078131117,-0.0031410759078131117,-0.0031410759078131117
1000,0.20242109254214524,0.7983816443867734,0.26359046034844347,0.4692985488198092
1001,-0.39131157980678816,-0.2718351680399366,-0.1912785348964147,-0.0012837385323415853
1002,0.3568229995194539,0.9291966149651583,0.17101225908185252,0.08329847946213242
1003,0.40841424815048055,1.7758892523706895,0.2643071217290067,0.6015550351991219
1004,-0.1225307101479832,-0.44081599127824866,0.33559785733185754,0.1636139361910855
1005,-0.024670391633164965,0.2590238903075023,-0.467765385817622,-0.03215405398077961
1006,-0.0930297872239254,0.42856233266959065,0.01670621980641734,0.5819267679209665
1007,-0.11009574145567139,-0.7053384291773995,-0.06506278708143114,0.3728713100578215
1008,0.42370691060163795,-1.0337743208782115,-0.41014423551001933,-0.09479357135376665
1009,0.7928182388143901,-1.43983346170342,-0.2754656585554285,0.02150956708628654
1010,0.4688638645904343,0.9962408457064915,0.4328681275083197,0.22890932521005178
1011,0.18122978938561304,-0.5605979611046003,-0.3734997552033548,0.1367446190600427
1012,-0.38871057970473233,-0.8175326493164836,0.08803522281818504,-0.1848173726363076
1013,0.08875145524498879,-0.15839586741194064,0.21492273172768647,-0.40354636702633806
1014,0.5806824501652286,0.9524191646893531,-0.1620792960437365,-0.19426266578917767
1015,0.40600895811039533,0.7707542846603103,0.1684510544021901,0.013034429014119144
1016,-0.5125561000477729,1.7038316794038915,-0.550068619271584,0.4699852762095315
1017,0.6214232541490872,-0.649149864170891,0.44641582624273823,0.12978227176581375
1018,-0.36539646251852304,-0.3351719218083926,0.573841195496321,-0.06429676431624075
1019,-0.2701310478493382,0.1884944541941941,0.20170803581362723,0.7257659156832248
1020,0.48694889551536125,0.64495890426712,-0.6345973625160055,-0.11787434582407297
1021,0.9496537881967533,1.1940324556872048,0.1460768065856211,0.3842336744744679
1022,0.09768583031627912,-0.93463286710946,0.4007702553447574,-0.2266192655315651
1023,0.8528269664738607,-0.8906232200444771,-0.032929353477767695,0.5404573577104522
1024,-0.4557479140901486,-0.17664962225508396,0.008323919093267004,0.2827132607221675
1025,-0.24928913970571753,-0.9349060383895748,-0.24328172361800232,-0.33231052014680174
1026,0.20164415016523818,0.8747397698760203,0.37553646553089326,0.08403425214839681
1027,-0.21822748058649433,0.21806064038033585,0.20111399957403536,0.19835216942252987
1028,0.42898893652430764,-0.346519347418631,0.4036461468855247,-0.00408112394243236
1029,-0.06423049329418251,0.6365234904614269,0.1410903072078172,0.7927545628599594
1030,0.403162473399861,0.1059333841864015,0.43107385991906044,-0.03418115322722566
1031,0.42577035337753144,0.14305716500708168,0.2073958182569522,-0.27738649978483204
1032,-0.5417750262342124,0.9551573383475569,0.10383996057081797,-0.2523120199013332
1033,-0.04994366895229552,-0.2722578385385782,-0.3801083194494481,-0.8670215047238413
1034,-0.532619786084197,-0.8361205639311731,-0.4178456277587345,-0.7803379441923315
1035,0.5991130740383248,1.3979845711481402,0.3268745791117659,0.27972875293010424
1036,0.2476325348394227,0.3413641970371676,-0.010594681435958667,-0.05557486761548641
1037,0.4668868757137519,-1.1409194221059946,0.34595531161393056,-0.5536639506380062
1038,0.33491524335088074,1.1869610084228237,-0.13127412560638255,0.35814989756498994
1039,0.42008717105226034,1.1096292945178206,-0.046935875680672784,0.30168053490887425
1040,-0.365222435620523,-0.558119625752779,0.6491457771948924,0.18909227291819425
1041,-0.11448504694755696,1.156228883900863,0.1356108553512927,-0.03093811217819742
1042,-0.0493836688838708,-0.3395921005854838,0.14069779739325863,0.11213768038062077
1043,-0.608785741144152,0.13868623897370616,0.14616295352705358,0.23759085982033995
1044,-1.039250277744013,-1.3898710935587784,0.570323990076516,0.9823572965032127
1045,0.7533536526155198,0.548547375785386,-0.1605715835359292,0.13235390953638182
1046,-0.04482637566573554,-0.13167197400531444,0.27609293821671865,0.6659069989293976
1047,0.6420127108652076,0.020572111737078166,-0.042923140336090015,-0.09146720917585197
1048,0.1011593510224213,-0.5403126843325153,-0.22861892951962481,0.4410973064865274
1049,-0.5243404017476411,0.8362845631776249,0.2509489966781259,-0.00909842399621956
1050,0.853579073760494,0.6628348785321831,-0.03184213465385283,-0.2688906050693456
1051,0.0820218669587241,0.41303360731431754,0.8221412693161393,-0.3033758791922114
1052,-0.3703409303459699,1.4717393512510561,-0.1043761195655744,0.3393823561222734
1053,0.5728916427821189,0.7687781369901484,-0.3808324111341077,-0.3478795315780827
1054,0.009287445982835582,0.5092171289056047,0.1352200190827349,0.5243294080334376
1055,0.9697933939130576,0.11564586657075729,-0.09830334571026378,0.11678213505972672
1056,-0.2159408573657196,-0.3512707608885516,-0.12383397776947667,0.002053686259707019
1057,0.09580563405225306,0.17676104160755965,0.3083553136847941,-0.34484883370019176
1058,0.6489529880628072,-1.2280089955541438,0.42194014773128674,0.841067598702651
1059,0.8993014940886781,0.11143809660116663,0.08812022311314208,0.12911447464338532
1060,0.27416006109841456,0.3192919239383057,0.20368442092872244,0.09419372236672414
1061,1.1086879581850357,0.18115260436813885,-0.5969032819112076,0.30293416366122117
1062,-0.7990121386290294,-0.7089338298474224,-0.26451715073068816,0.22205626155292194
1063,-0.49727116551329137,0.3093353662432003,-0.11672310136745488,0.1452364896713542
1064,0.3562700240887072,1.0046798571326798,0.2540067439974164,-0.03587341671867353
1065,-0.14796073586904276,-0.2365955801834162,0.5119139156204426,-0.04486030791024004
1066,-0.09831605514345053,0.46559457658062436,0.028674262458485374,0.8166265291253134
1067,-0.46536385582009904,0.3460593447017115,-0.0897449509749782,0.01910144118039704
1068,-1.0974444723936183,-1.0758779861407495,0.4323122265254674,-0.15630899297780587
1069,0.08130040893518795,0.4653086031004454,0.06175603112765809,-0.2847317811142649
1070,0.29525936029316435,0.14306143267245924,0.18195488404960053,0.4330321779290378
1071,0.3074652701416222,-0.6748283510703729,0.008272072593774285,0.07490928137370453
1072,-0.6190478544359579,-0.05792094507199373,0.1570753079108183,-0.12431400606876232
1073,0.4825422363380216,-0.5374717249480016,0.04693470323041894,0.30951782831926217
1074,0.08217471940155596,-0.030084809686147018,0.05522348038453444,0.07566997007318424
1075,-0.7793052196235988,0.5608227320754402,0.38698260954446007,-0.08049191552885226
1076,1.5662057593139806,-0.13614412852570457,0.18861537044240378,-0.6157467915946995
1077,0.5514198596918887,-0.35226371192962613,-0.25333545536422764,0.2066630964418878
1078,1.0088904619963235,0.6306697783175982,0.18177037933115645,-0.20219220831022744
1079,-0.04272270304855564,-0.5877915519518355,0.012964092628851745,0.008085258519694667
1080,0.5454596069146802,1.1677466223647717,-0.5149511041387681,0.16415118817489935
1081,-0.683429809124072,0.2640206579876355,0.11514517727529995,0.13272215018570996
1082,0.2291705948435087,-1.7252850256023253,-0.15642933672631318,-0.9194737155211847
1083,0.45420548657173,-0.2784659877946192,0.15578922542275803,-0.7320197489695593
1084,-0.35186800868486123,-0.4215339575366748,-0.0371614574973514,0.4913944976959295
1085,-0.28848772288612107,-0.06985353578184456,-0.01533002386398536,0.01350761307938643
1086,-0.0344856674234729,0.7949692763045783,-0.03404272672689213,0.20032832253487295
1087,0.11120054089228787,0.33056578680437737,0.3466233016241874,0.2908519745971762
1088,0.06740084856014573,0.3122425385419088,-0.27612663297063356,-0.14178231437168137
1089,-0.549286402302915,-0.620565433883746,-0.15508956204490107,-0.39979875383040236
1090,0.5395011885560556,-1.8756095192927018,-0.24513096788073474,-0.5302047122203994
1091,0.39825380247518033,-0.2817239289069194,0.061910202665923286,0.06916682775012638
1092,0.7591288068218365,0.9603159725055932,-0.17118689719369645,-0.2643545551132178
1093,0.3322959580724899,0.027644980851620482,0.07094567004533692,-0.4240616339682751
1094,0.011330363209183911,0.6190849840003663,-0.46342625342566085,-0.5276777954036985
1095,-0.7496289067791344,-0.18514738148404497,0.19536956861292085,0.016587763363241206
1096,-0.37437182453388895,-0.5110630164072926,-0.0434090193715944,-0.37012455414193407
1097,0.26999341191987924,0.19528756811343842,-0.624606053641421,0.4907736117988899
1098,0.6587802635718655,-0.367966282948482,-0.03457411423568064,-0.5743826366608279
1099,0.3924050473690182,0.2856281725800595,0.318561360494074,0.285814929634378
1100,-0.2750738987981122,-0.5569922407030079,0.4982066759871219,-0.24311152102327072
1101,0.40145903042612685,0.22860739317045556,0.11821248337719444,-0.9683583321918141
1102,-0.1566567545470324,-0.2842492200846279,0.1651694001428023,-0.47778244549559684
1103,0.14286805246635362,-0.5645363820452722,-0.3479686001128639,-0.11097591484556774
1104,0.6452713201832697,-0.7756016551279444,-0.21608075455128561,0.3819030120329733
1105,0.5171405242678241,0.21097422718602737,-0.09687376103937473,0.16852227895183985
1106,-0.3625231287106812,-0.12575945924646492,0.19078742201767365,-0.4536350212968143
1107,-0.34964900162613605,0.4122026182507732,-0.16592891996389675,0.3201567532696134
1108,-0.34256958805293614,0.33726526385770095,-0.10229295180420886,0.4593571493491663
1109,0.33697207779529403,0.5881201085877446,-0.19882300572918649,-0.08823640573994854
1110,-0.8990018582727759,-0.3915628124982734,-0.346561127682797,-0.10428730576182085
1111,0.6327922108689971,-0.31014012168388616,0.23698425104879411,0.48692793400187484
1112,-0.17154322843475375,0.9395325481567153,-0.15281510510697854,0.5159212526916043
1113,-0.5995539537609444,1.7035483027715634,-0.34073995842163757,0.45594535152872473
1114,-0.7417083149329425,-0.20347331468981414,-0.019974737401098223,-0.4718835373656068
1115,-0.6186629529793685,-0.07878589788607891,0.31446306707673666,-0.006216730355187536
1116,-0.2801447501548594,-0.42093460814495925,0.41328711155890374,-0.0755069721504956
1117,0.20285791346790183,0.4025252095942827,-0.1800300217199131,-0.3600325408230846
1118,0.5478153394298734,-0.686563868454669,-0.42482694164338,0.07899121349665986
1119,-0.0690435842120524,0.309631175049747,0.008625570879843246,0.19061842626293546
1120,-0.6697642759922326,-1.361433037323469,0.07381798027303663,0.35712351136960824
1121,0.3686289126245672,0.1505575596940637,0.12693560076168842,0.2973946717775036
1122,0.03781241180227987,-0.16370035683420986,-0.192930590320464,0.1763407868641926
1123,0.575089536972659,-0.35498039165530465,0.06420673580119345,-0.15861141538624923
1124,-0.5412148029426644,-0.5206337226760553,0.15755046299069395,-0.20920791069502437
1125,0.5399613139912408,0.4505971310395952,0.14069548990202124,-0.06895181997417292
1126,-0.6229275534694685,-0.1831103400860969,-0.16324675728919158,-0.5977994292778331
1127,0.3670366416561873,-0.3353681687592147,-0.21446912668627482,-0.28834025633423643
1128,-0.3782522844505196,-0.7843871148545717,-0.49362306279885126,-0.6016432777602129
1129,0.16744714571169544,1.3419746801268335,0.5900112224317533,0.0938058985557755
1130,0.3504582119068944,-0.8120402349869944,-0.11261749052889146,-0.5780300383742826
1131,-0.4191629211256713,0.024937404772912078,-0.5177566872303361,-0.27528691215203605
1132,1.0598498659936288,0.49744822622145507,-0.17960225678313696,-0.3343799338257497
1133,-1.0441529118313788,-0.8188447121286634,-0.03567824270218324,-0.4194360016177377
1134,-1.0945052457286362,-0.42132899394562223,-0.10293328996821094,-0.7109908511332911
1135,0.29837724924138387,-0.03559104360159569,-0.11335185361933878,-0.2860363213318472
1136,0.912680257651684,-1.441687841229304,0.10634716023207992,0.25217085027455566
1137,0.04767755456529424,0.41960062892331046,0.4193841070492685,-0.1822146596321625
1138,-0.1227839119983089,-0.48649252542012555,0.1516693374547109,-0.7694862838788968
1139,-1.029416723654658,0.21920553490010253,0.16743290120129745,-0.3180216776093224
1140,-0.16714713335052508,-0.6006910612320255,0.08027373871827226,-0.4742437908008026
1141,-0.7688311248981998,-0.7227472934853874,-0.4386962131336171,0.4239557729551415
1142,-0.47896868744545207,-0.15961013719449685,0.15274455198740672,-0.665060821171804
1143,0.0116625404393179,-0.7763031231873447,-0.21172412862231926,-0.11863613977744442
1144,-0.014001606816880535,0.09737100129687312,-0.42992274503691535,0.29029870622121573
1145,-0.49957118484060614,-1.2297724880690923,-1.0187789557259241,-0.037755278681217544
1146,0.07311691642589269,-0.8550122891505915,0.17974611477997157,0.038876206100211225
1147,-0.22239575858224603,-0.2844703468909177,0.20173477091072095,1.1595798773003188
1148,-0.4265487104727438,-0.1331084698268875,-0.061387215101483775,-0.14227851617894535
1149,-0.21259057648365423,0.02961982005831132,-0.0356460568170453,-0.33976683508660227
1150,0.00793660366449965,0.344545738402833,-0.4729064039761288,0.5122858224360848
1151,0.3463574007736513,-0.9021988985897441,-0.6580284566874335,-0.3264147211123104
1152,-0.8955863626589683,0.14220434103367263,-0.6386069141374664,-0.1351262790561648
1153,0.2277975761779148,-0.553031443862285,0.5780082949627232,-0.20866749427397135
1154,-0.9467835377089676,-0.1201432641501966,-0.3793278692649934,0.3117677528634782
1155,-0.5451705606321762,-0.01283091039818185,-0.07316983604804894,0.9027779735652084
1156,0.2798080996537261,1.139167159607517,-0.22066876881026598,0.05531785468482661
1157,-0.15762549914297475,-0.5978180993573982,0.08010526193700908,-0.3026157759801634
1158,-0.6139564867154352,-0.9459275475056611,0.3817351982364544,-0.5645873650430837
1159,-0.13904172909666296,0.16970581519316058,0.12628918925125474,0.05111912736293375
1160,-0.19918349350163883,-0.03720367801351627,-0.17650315666431182,0.011269226528907064
1161,-0.5728586754253234,0.6099904729871231,0.7832468928546589,0.1595969987719157
1162,0.9065398558745374,0.40536676645350345,0.07383488673226976,0.8915063245576822
1163,0.21733078717443005,0.49953003752593167,0.5677281525769536,0.9366724323472887
1164,-0.09848597521751698,-0.23482766628107915,-0.28077758120641605,-0.1631556038613502
1165,-0.2803958725536801,-1.3226364625574432,0.0820035519818648,0.4091558535804249
1166,-0.5061408801396798,-2.3362238480519424,-0.7017345954531685,-0.3795609394342463
1167,-0.34120603503867175,0.6349799723508102,-0.08776283844098422,-0.2826787373193171
1168,-0.8338594277335458,0.6731953310303407,-0.37130186767965945,-0.04403311555587175
1169,-0.2524503659879563,-0.6600549513412834,0.0432497166813884,-0.8709843439679533
1170,-0.8159645199939626,-0.810852454323839,0.00370617977902879,-0.5243459811144329
1171,-0.27101194273663826,-0.31425705030063694,-0.232968994494598,-0.39587540749792216
1172,-0.15299456181582627,-0.9060621881922952,-0.5471095516702531,-0.817072177848162
1173,0.6366634246289182,-0.2397563711545196,-0.5510730722473847,0.016588780020228996
1174,0.12813525821760285,0.21244101827043793,-0.08674003719091669,0.8810828277337514
1175,-0.10501478943623492,0.4219574832847082,0.4479073833623684,0.44496204303161296
1176,-0.5577662881473693,0.22671505117633817,-0.1660883558691531,-0.1624896679975635
1177,-0.2090094272232752,-0.3102993292579097,-0.05618706204201969,-0.28576083730822616
1178,0.3637753712114842,-0.6345218408263225,-0.09191305297903692,0.36939881203912794
1179,0.257120257850029,-1.120526058462347,0.036632443922604806,-0.7144361980181302
1180,-0.5376917717403299,0.0028808153999383343,0.030762091664062713,-0.7412140227006779
1181,-0.08274119063796731,0.944645510500375,-0.03311352888585911,0.39559063035163894
1182,0.43825571834774796,-0.59943477978012,-0.35811583194670754,-0.0811326581348784
1183,-0.553651479354742,0.5215536545645398,-0.19046155463065145,-0.45151087080909696
1184,-0.081903020955542,0.5014061262580465,-0.152101354083972,0.06620203802543619
1185,-0.6965567489340245,0.6693559847970014,-0.29571734239284186,0.39375356008916595
1186,0.2422333375890126,0.955286100233464,0.3244175418792635,-0.2338673619247046
1187,0.22853032120281175,0.5949227209057577,-0.3374142611371326,-0.186240412276517
1188,-0.29756462127160677,0.20825319612068843,-0.3363903524123585,1.1001976324284855
1189,-0.4433748194010387,-0.7014560190521563,0.001530612985124108,0.44128131598316717
1190,0.859365844583159,-0.738274340622158,0.054559079714661805,0.02379443310821234
1191,-0.24392663994676128,-0.3809082312424213,-0.06751870925782201,0.5387819194560981
1192,0.5858433425200937,-0.4104964096541134,0.3210334372416041,-0.33866350110251214
1193,0.44859638327255325,-1.2901361892050487,0.0636998300587446,0.5054238646755598
1194,0.34269371566877027,0.27746273516414405,-0.5894165125085302,-0.28872359644761564
1195,0.5801821793470744,0.21565411683915137,0.10057681313560113,0.6152251076696686
1196,-0.7553279598916026,0.2943699779304793,0.06582598335950207,-0.3511654105878786
1197,-0.3087646777295027,0.2659589042378406,-0.08282080973284153,-0.2624127749403836
1198,0.06823791845011412,0.8252673602591544,0.11937963115838349,0.577854605956584
1199,-0.5542957725315437,-0.37114286847561256,0.20243806429690722,0.14419411002284574
1200,0.5849541320254039,0.11893823116351565,0.15054358836026818,-0.3338694825163054
1201,0.0792026802575836,-0.5021069625031613,-0.12072262292602073,-0.79765749729227
1202,-0.4232606530292416,0.5347456387814666,-0.3856130793426596,0.43838209874222217
1203,0.17450340253947022,-0.6272592562529947,0.5394264193690453,-0.046533409780641584
1204,-0.9251569193018727,-0.2589380347180176,-0.07768747899157911,0.600426462223827
1205,0.23660975715416907,-0.38818450730192505,0.6435399119942192,-0.1793170742707263
1206,-0.2841758684179399,-0.33914783002218307,-0.5371620527131704,0.17409569676486494
1207,0.442199285148818,-1.0123602474063427,-0.25665756360412517,-0.36166235248456374
1208,-0.14912740501159777,0.40837824844441273,0.07006348498526169,-0.031178289784835708
1209,0.18457305049112055,-0.38409002933597153,0.29611359465847503,-0.42461128813488436
1210,0.14075338073759563,0.7679521240082625,-0.11443547477447547,-0.19650963801075721
1211,0.49522238578513356,-0.42292958107444373,0.5175321377135118,-0.1479914431385594
1212,0.7857259050385594,-1.20405447875664,0.12242159943050349,-0.36141186200932024
1213,0.19058609280977826,0.9767876785514347,-0.13879401330403857,-0.08981186298900587
1214,-0.2852708288414481,-0.3167867489007352,0.06578791830986684,0.12199023355084454
1215,0.13360997503936167,-0.1003128340487038,0.2981735088964273,0.0015997259125934762
1216,0.03622989647430905,-1.3596349268015866,0.16276970831639392,0.8906184202372346
1217,-0.06276214188871618,-0.5120671492151566,0.001224227581659812,-0.5269020203742386
1218,0.9793275827971006,0.694957854830063,-0.9409855625041366,0.19648707152076464
1219,0.2797900658778793,-0.12357673282989995,0.054261869161708894,0.3484360080652481
1220,-0.5172515310437203,0.7208355599171906,-0.07725596743010835,-0.4579033580002814
1221,-0.28476920771132147,-0.9913787813920963,0.3284165862202702,-0.17912526231213283
1222,-0.884856886086282,-0.7990233377193212,-0.32906869698161606,0.3591645643304739
1223,0.21785205948487796,-0.1758839454197837,-0.5036937283924026,-0.6318108206689761
1224,-0.8077598911509122,-0.3801741727290305,0.25955560498282754,0.18958812297553207
1225,0.03284246282575206,1.2615733869529862,-0.13283098215400774,0.23274163316682162
1226,0.3638153558699415,-0.8475358153325668,0.015710777252867507,0.09197282766486871
1227,0.1951693955332942,1.0541318766088885,-0.12175573142384712,0.05453094703457982
1228,0.4776304830572963,1.3459137827686067,-0.4088299231591598,0.2165809066983845
1229,0.030581547145493403,-0.13448298193278815,0.39218060303999086,-0.23712869793271085
1230,-0.2314921263450902,-0.16246624761210932,-0.1986066988364601,0.43146376358221433
1231,0.009151915078096096,0.3078149563954157,-0.20343176101644672,0.252600028795894
1232,0.3189145516199381,-0.9319921551743306,-0.18585405009611472,0.5667234719741387
1233,-0.3123476803081416,0.9162627155482137,0.15350556107583468,-0.050041969218975135
1234,-0.4583022890053436,-0.03245632206789967,-0.4447525608340029,0.1557934121280351
1235,0.44153364041782317,-0.5610320118706414,-0.29325087979382924,0.36553851802765597
1236,-0.40120956404019525,-0.5303866956131105,-0.04567499836267257,0.24668700230734225
1237,-0.15414760579419978,0.46892707719684384,0.630105813404255,0.47303056593436565
1238,0.6110193409257386,-0.49205724313515264,-0.2614602103382079,0.26796895346302035
1239,-0.09600876189203596,-0.49763251394480473,-0.2802637284132192,-0.10976391653184549
1240,-0.11981026057720742,-0.341951084609058,0.17600954515259926,0.04052971396601873
1241,-0.467357154555173,-0.6443427558269565,0.4857121934222902,-0.3252503269880648
1242,0.1838476615854673,-0.8516608878602427,-0.25144693231411386,0.7031524732588175
1243,0.288355382354336,-0.07939547250240905,0.093893803267812,-0.055891220241688855
1244,-0.15101674611325666,0.5758552510441387,0.05916610762699407,0.7371563822424186
1245,0.9959584798912327,0.10864030045095492,0.006695471484032017,-0.04961648856186772
1246,0.01587520890118435,-0.7033209013288528,0.043874348979702216,-1.0209943999346287
1247,0.03253883871604275,-0.9381605507345148,-0.14577048474370982,0.19312987146156352
1248,-0.46434431213367006,0.9632034987846694,0.05597770203271675,-0.07173782836979485
1249,0.4228384024396114,-1.490224291015771,-0.06494209661527342,0.9257063213135244
1250,-0.3464023687697906,-1.0195127011762357,0.11044466779969252,0.48884318004858063
1251,0.7722069227516852,0.40443318880451634,-0.9257768796663729,0.6827444675243439
1252,0.11321727410519154,-0.2325504038884792,0.5620314473552952,0.8373734553788168
1253,-0.32592793292563926,0.3425150541955738,0.10113401889161218,-0.23180716350810743
1254,-0.8035158402746462,0.23909835379336442,-0.009024453723256443,0.4035166253854545
1255,0.5518655683445128,-0.4023805580196148,0.829002722456981,0.019652111679979573
1256,-0.6129710975625196,1.0786771952028842,0.013854433018340842,-0.11874931957560386
1257,1.0013321330915277,-0.7600213092332991,-0.04230577293595855,-0.5752534511691019
1258,0.14973171173571098,0.62896248983408,0.883844932138594,0.23724480123001818
1259,0.48422138435766804,-0.09980989593289626,-0.0011612014359108913,0.6795601831422666
1260,0.43687418284004853,-0.5020840623271854,-0.46821869673110733,-0.22163379225762553
1261,0.16442250386160176,-0.5646022582164476,0.21854316026077614,-0.2859444558708331
1262,1.1134523438602593,-0.8379724569157052,0.19873668979828402,0.22622392723014134
1263,-0.6587853389798499,0.24554558455803047,-0.1997981494896251,0.7884400694120606
1264,-0.24233125588295057,-0.17680703157697897,0.07867754076853256,0.174126029558762
1265,-0.02432778281651843,-0.630078807033005,0.5646539480666279,0.12321195750136404
1266,0.23770245930836623,0.12324171814545808,-0.10407419037240007,-0.31944832489348574
1267,0.00884761154739691,0.09433712280097592,0.3183524820951783,0.17274068141440718
1268,-0.5985849481106653,-0.3240466239080405,0.6390396695048186,0.19983904363657906
1269,0.04347939044476415,1.3454561749076717,-0.46028332031366154,-0.37875352734171974
1270,0.5987448766976564,-0.4826067230340889,-0.17449443936438236,0.5300245910813854
1271,-0.3670790732005773,0.4326295107428788,0.051804590134921766,0.5857021711570408
1272,-0.17887903348487522,-0.6452740737908416,0.10294278099453062,0.057464100621475306
1273,0.05950341327505946,-0.3840304408217279,0.12507754348594136,-0.5929965915971802
1274,-0.25068129844848674,-0.3225949859140048,-0.2658736652541207,0.503022901592741
1275,-0.1258115334544433,-0.1772817184144389,0.16217593668034838,-0.4581304854641081
1276,0.6477708433442396,0.4650037691980414,-0.02729275882829152,0.5783931784984163
1277,0.09098377476507424,-0.39859907917349346,0.3781138663431046,0.27135397160591257
1278,-0.245812659299402,0.12388275582998409,0.1283096548896937,0.42640324448139233
1279,0.38669923198927375,-0.24837239084578344,0.4719647898386436,0.04054126477113612
1280,-0.4601368021097093,-1.1142729980416188,-0.377902384364558,0.2048059602931186
1281,0.6564573180491968,0.31975280756279906,-0.38556925474831477,0.24729651219212176
1282,-0.2036753199602243,-0.9487935582276692,-0.09623859961199543,0.4784048189908507
1283,-0.3580885326337753,-0.12807647736733757,0.031131339006544197,0.7171868967052659
1284,0.2272913089088431,-0.6910998399836602,0.332373100446259,0.07763156521292447
1285,-0.058532765943509035,1.2878376719222229,0.2735808491451335,0.2630632290813762
1286,0.34536287161081536,-0.6346388493904137,-0.24026200951733365,-0.378555856781031
1287,0.7005930068312396,-0.34076526364466847,-0.4803869776132841,0.25243088754321175
1288,-0.16990778965025632,0.9694098263076395,-0.27015342863943825,-0.18760014206972003
1289,-0.7784444053499198,-2.3429072920885523,0.7222843695569082,0.037255072468181515
1290,-0.5818851122913479,0.7330998668503282,0.48648406725152,-0.20629881316443854
1291,-0.23559332041862088,2.417086332469072,-0.02831001260969424,0.1818507765111512
1292,0.2779312737429505,-1.083222709794942,0.18461453906378966,0.35540865553502493
1293,0.09207089310051263,0.7566655236267716,0.1531799995354834,-0.6223871365238133
1294,0.1469955145193244,0.13679438854492895,0.40405349728445106,0.329942891941394
1295,-0.04274052462798147,0.3757604087862873,-0.2039185190861654,0.5150679080968045
1296,-0.02936308373270196,0.7282264268629361,0.014972518301480987,-0.012115505695032105
1297,-0.6285153147453852,-0.5089976327668851,-0.035921582872211075,-0.04187652395620349
1298,-0.33528645766877657,0.7188768825432034,0.34284430817427103,0.23050827842977603
1299,0.3684032039463006,-0.3134912242283468,-0.1787062890420995,-0.5271190633012485
1300,0.8323940577418104,-0.6100269836052102,-0.028150171846164706,0.5612222281216749
1301,0.08622141687548286,-0.3514560475749487,-0.4325613188210066,0.5554289858202921
1302,-0.6639391374160017,0.3603841820099801,0.2208269460117275,-0.24837081719478465
1303,-0.13056078003672356,-0.037146614048670916,-0.28768859174220746,-0.04831168149052586
1304,0.025005232390248114,-0.7717354658373791,-0.486270544288055,0.4268636914804013
1305,-0.7874654352170763,0.09856006837706237,0.007545377315544086,0.2785973959874317
1306,-0.21579621480369,-1.1320384930954586,0.058766577850757576,0.1597386695386441
1307,-0.3826127668502034,0.4516710823257878,-0.058293782989043405,0.37549985850868306
1308,-0.1469396037651934,0.04236398428235379,0.23780019601752683,-0.15262330951260833
1309,-0.6114780188354145,-0.31053162311751836,-0.004523107616739363,0.3662910933440032
1310,0.5900173485617297,0.5939423440952546,0.251581834358994,0.0967915112190919
1311,0.04010062262549418,1.619067605541048,-0.08261763887827277,0.5418504509284281
1312,0.7773370673979894,-0.5226541709018568,-0.03727656169876456,-0.2518710896044161
1313,0.16936725387105078,0.2715233795938183,-0.01191988489323545,0.020602521183753254
1314,0.1654184270719948,-1.5768973340409456,-0.3629787688789326,0.33910333282449756
1315,0.21406428781485523,-0.8195477049456502,0.1207194562447049,-0.05218873319278269
1316,0.13856017756290306,-0.09022094625028385,-0.5394345706640493,-0.228180459379498
1317,-0.036166706344640906,-0.13890817557429505,0.18854379424573292,0.28067966971966024
1318,0.18735533014748706,-0.7857522763711888,0.25399732508936124,1.2151613066804297
1319,0.6674042196904839,0.43518846339606837,-0.1430990692038642,-0.27493768618533637
1320,0.23438269152373223,-1.3747567589149396,-0.4522711125199012,-0.18224373888745524
1321,-0.6265670631184583,-0.005649381886746525,-0.4592373648418283,0.12477122979690156
1322,0.6428988210884535,-0.5329357200482822,-0.48537209839549733,0.24707805173261466
1323,-0.5934690163400345,0.41888264266957487,0.3016025761416242,-0.28526610500082683
1324,0.2789577389701554,0.2972414015744522,0.0647973800078572,0.45454194367804646
1325,1.0350882479002108,-0.6479124497396521,0.07207006295912079,-0.42768175521392143
1326,-0.6340496240167712,-0.2896280325067107,-0.3687211247271035,0.6408609821599393
1327,-0.5662517179506584,1.0329807778851907,-0.25307268262037674,0.018516768599168856
1328,-0.02662148844111978,0.37439687588695325,-0.5552586372344845,-0.09947294565317435
1329,-1.2606581466957758,0.4539297607203454,-0.43667906888226765,0.4479281706509757
1330,0.22751803726092773,-0.8285524125638843,0.5005907431445122,0.15364970170787226
1331,0.515138537347168,-1.0675211115790637,0.6055256760997889,0.8550070595528125
1332,0.24296368085365755,0.774541343686842,0.12199902342269889,0.13874489959844982
1333,-0.15490455729710695,-0.6265361607423596,-0.4154909500335774,-0.43478398521235206
1334,0.1994852466786317,0.31819737027412776,-0.5194238433026579,-0.520892553300653
1335,0.04938572279165268,-1.216146998558486,-0.8791026878505106,-0.2831856104784617
1336,-1.0100213027562914,0.3165082230301231,0.056224271750984156,0.8223571842198236
1337,0.14394866561495723,2.178770544279338,-0.4349567906631411,0.11020445766241209
1338,-0.7328246044608587,-0.01131151988712814,-0.5962181421456497,-0.294354357411703
1339,0.8081489652723667,0.6093013732819551,-0.3863701605736465,0.14348774637912504
1340,0.4567615062756514,-1.431882074964415,-0.18258489788542695,-0.4316493320938324
1341,-0.33214465406587146,-0.07948539874125898,0.19716447803832127,0.4922950853228804
1342,-0.55060491627391,0.43545056963014056,0.0733476333152968,0.4412466482220471
1343,0.7546053963712334,0.1999320183538025,-0.07410885792392582,0.27399848401579907
1344,0.5841202463263861,0.25716741473993265,0.49823273234880844,-0.1679886702473984
1345,-0.5466453944261465,0.006670468234240584,0.28894992137876957,-0.8837007544947889
1346,0.04577810914797387,-0.2021701532070051,-0.08366633140099367,-0.4638270955400423
1347,0.1623501094146988,0.10350875636097462,0.10433151441975291,0.02167355469246028
1348,0.041447506615125154,0.3444602528159094,0.09208794097130439,-0.009321745050434344
1349,-0.6668270818699485,0.44667071343236664,0.11886501199063108,0.3493954702769937
1350,0.10580220535805879,0.6214271113217141,0.5903556211443355,-0.7059443655316177
1351,-0.1983516278761755,-2.2896709129431922,-0.37300438535231506,0.325186553957081
1352,0.5020764067342884,0.9925728810010948,-0.42852047009895256,-0.47106762139846947
1353,-0.18196708562348424,-0.5915543749913432,-0.2557621975951547,-0.43648834952235693
1354,-0.8098377756135019,-0.33648201687524837,-0.48631346121180635,-0.5336628281509527
1355,0.9797666174385142,0.3526781603627362,-0.06300669396747957,-0.022569822395941005
1356,-0.8521428030106166,-0.49257380969593495,-0.48977734982113397,-0.12543725470358974
1357,0.1507869320863412,-1.0121917420835933,-0.037818077209443635,0.30650448713125455
1358,-0.19985299533495637,1.2267196625301602,0.13788160955204823,-0.24043531271760546
1359,0.6932768600709354,2.253410791169235,0.05012271168788496,0.0773932128026826
1360,-1.2450082747932032,0.35376692800702425,-0.23717497200499477,0.3692934075339813
1361,-0.02626772937393322,-0.3336145052373487,-0.4167383206280386,-0.8524721528545751
1362,-0.6556335313539883,0.3307677967730809,-0.5307381911098574,0.6292399965838515
1363,1.0627208572183038,0.2054552965422,-0.2035598671108681,-0.2376875362333023
1364,-0.2571984320740058,-0.8321133975270688,-0.1390668731429482,-0.3346585095696446
1365,0.048821309877885494,0.22783509447976488,0.1048876850305798,-0.3924760878911745
1366,-0.586901065197685,-0.8431973867893411,0.035573650144164706,0.28190293738466476
1367,-0.06082444937928207,-0.60032458562865,0.09822783299064751,0.2994709199848236
1368,0.13193386810267935,1.1818085553311197,-0.3486913474577977,0.11561165660198452
1369,0.04620782566364452,-0.6492973860662341,-0.3705296422676869,0.2274688450504037
1370,0.08842022956319494,0.012268294306715707,0.005471557381527312,0.04415109015053496
1371,0.030249975246528477,0.7239850631547834,0.004700359212966701,-0.03854253265164219
1372,0.13478210589154635,-0.03253643967478743,0.14796065023885896,-0.6586257692187572
1373,-0.061560171343940276,0.15702761028980977,0.12663067062204914,-0.32108425199988705
1374,-0.179871889169756,-0.4702896179668652,-0.07938234893666928,-0.30247551424645047
1375,-0.2659368684689559,-0.734556766483095,0.29991919813433693,-0.2227412423178008
1376,0.2859429004655596,0.45115697483126727,0.33041566670846123,0.012094451038602058
1377,-0.39064283551951984,-1.1960565304894417,-0.18899760847414782,-0.06105175114797339
1378,-0.28296293934832006,0.8598283237434657,0.6782715959927902,0.4744325819835392
1379,0.5893341353367103,-1.1695269818396536,0.4098682186168605,0.1587120396404487
1380,0.10734602256478311,1.0863925987479672,-0.22339147622202576,0.7749531251507741
1381,0.26984725467038095,0.1962579544393784,0.011495233388916629,-0.6124573484560056
1382,0.31328108798790266,-0.8889323277800769,-0.26522367765105936,-0.06466187199085785
1383,0.3130568278852026,0.5781164573365565,0.09610609126432965,0.23518628166604091
1384,-0.2829003443446605,0.8282277050300286,-0.438430354970995,0.5577054758401682
1385,-0.5188710333275252,-0.46128122823657114,0.4606483893276817,-0.21693966982469393
1386,-0.28519418446713085,2.1758447701248316,-0.1667577509791519,-0.5406228754748029
1387,0.2097615754802394,0.16682020348017088,-0.37918989046925833,0.3387071583475102
1388,-0.2248405076241673,1.3698946060403983,0.22708045970902319,0.10294346074249176
1389,0.3340358162214035,-0.3441763945158671,0.07999225979908181,-0.17065380142169556
1390,-0.7418613047516865,-0.6964085721638393,-0.10037114937846989,0.10020014627519981
1391,0.20269409846021796,0.2864348271863587,0.04689395611086811,0.21197271766326958
1392,-0.7664505259492425,-0.35298856102857923,-0.08205981138499711,0.21013815600910485
1393,0.458047090490197,0.33981262412008123,0.10447374119208534,0.38631855137731996
1394,0.11905781101775784,0.5301651915993869,0.49789950628428037,-1.1644210038695464
1395,0.5295054837721248,-1.426063701253763,0.35070635507470443,0.6206396731519093
1396,0.12041562091478229,0.3491403415676201,0.3591781951179861,-0.1266513426113528
1397,0.09702591346011541,0.5906475121988727,0.31724134563656026,-0.3301693794735452
1398,-0.2567938799259832,0.13881882250760755,0.3162166557615819,-0.21235429034623557
1399,0.031029430884513886,0.9567088050000081,0.15651743821041042,-0.5200309737975628
1400,-0.9221877320820956,0.3401589458386837,0.3124335539539199,0.02743597439792511
1401,-1.3650494024573234,-0.3888021476738948,-0.38701116632121796,-0.8743488755116493
1402,0.37888462523435545,0.5300429704979837,-0.3393785826108578,-0.7779679206707522
1403,0.7034367102113673,-0.4311432571203505,0.0017291551672938155,-0.16147374884394944
