Time_ms,iliacus_left,iliacus_right,psoas_left,psoas_right,iliacus_left_envelope,iliacus_right_envelope,psoas_left_envelope,psoas_right_envelope
0,0.0,0.0,0.0,0.0,0.0002049123644590404,0.0002049123644590411,0.00020491236445903762,0.00020491236445903315
1,0.0031410759078128,0.0031410759078128,0.0031410759078128,0.0031410759078128,0.0002038977081250915,0.0002038977081250922,0.00020389770812508876,0.0002038977081250843
2,0.0062790519529313,0.0062790519529313,0.0062790519529313,0.0062790519529313,0.00020289778120896758,0.00020289778120896832,0.00020289778120896487,0.00020289778120896043
3,0.0094108313318514,0.0094108313318514,0.0094108313318514,0.0094108313318514,0.00020191219655143916,0.00020191219655143987,0.00020191219655143645,0.00020191219655143203
4,0.0125333233564304,0.0125333233564304,0.0125333233564304,0.0125333233564304,0.0002009405948403014,0.0002009405948403021,0.0002009405948402987,0.0002009405948402943
5,0.015643446504023,0.015643446504023,0.015643446504023,0.015643446504023,0.00019998264223894038,0.00019998264223894106,0.00019998264223893767,0.0001999826422389333
6,0.0187381314585724,0.0187381314585724,0.0187381314585724,0.0187381314585724,0.00019903802759792776,0.00019903802759792843,0.00019903802759792504,0.0001990380275979207
7,0.0218143241396542,0.0218143241396542,0.0218143241396542,0.0218143241396542,0.00019810645932673843,0.0001981064593267391,0.00019810645932673575,0.0001981064593267314
8,0.0248689887164854,0.0248689887164854,0.0248689887164854,0.0248689887164854,0.0001971876622819326,0.0001971876622819333,0.00019718766228192996,0.00019718766228192562
9,0.0278991106039229,0.0278991106039229,0.0278991106039229,0.0278991106039229,0.00019628137470247976,0.00019628137470248044,0.0001962813747024771,0.00019628137470247283
10,0.0309016994374947,0.0309016994374947,0.0309016994374947,0.0309016994374947,0.00019538734543939813,0.0001953873454393988,0.0001953873454393955,0.00019538734543939122
11,0.0338737920245291,0.0338737920245291,0.0338737920245291,0.0338737920245291,0.0001945053314953439,0.00019450533149534458,0.0001945053314953413,0.00019450533149533702
12,0.0368124552684678,0.0368124552684678,0.0368124552684678,0.0368124552684678,0.0001936350959885515,0.00019363509598855217,0.0001936350959885489,0.00019363509598854467
13,0.039714789063478,0.039714789063478,0.039714789063478,0.039714789063478,0.00019277640653979922,0.00019277640653979992,0.00019277640653979664,0.00019277640653979242
14,0.0425779291565072,0.0425779291565072,0.0425779291565072,0.0425779291565072,0.00019192903409541591,0.0001919290340954166,0.0001919290340954133,0.00019192903409540914
15,0.0453990499739546,0.0453990499739546,0.0453990499739546,0.0453990499739546,0.00019109275215750752,0.0001910927521575082,0.00019109275215750497,0.0001910927521575008
16,0.0481753674101715,0.0481753674101715,0.0481753674101715,0.0481753674101715,0.00019026733638033037,0.00019026733638033105,0.00019026733638032782,0.00019026733638032365
17,0.0509041415750371,0.0509041415750371,0.0509041415750371,0.0509041415750371,0.0001894525644757206,0.00018945256447572124,0.00018945256447571804,0.0001894525644757139
18,0.0535826794978996,0.0535826794978996,0.0535826794978996,0.0535826794978996,0.00018864821637037046,0.00018864821637037114,0.00018864821637036794,0.00018864821637036382
19,0.056208337785213,0.056208337785213,0.056208337785213,0.056208337785213,0.00018785407454219075,0.0001878540745421914,0.00018785407454218823,0.0001878540745421841
20,0.0587785252292473,0.0587785252292473,0.0587785252292473,0.0587785252292473,0.00018706992448340104,0.0001870699244834017,0.00018706992448339852,0.00018706992448339445
21,0.0612907053652976,0.0612907053652976,0.0612907053652976,0.0612907053652976,0.00018629555522074403,0.00018629555522074466,0.0001862955552207415,0.00018629555522073745
22,0.0637423989748689,0.0637423989748689,0.0637423989748689,0.0637423989748689,0.0001855307598529747,0.00018553075985297532,0.00018553075985297218,0.00018553075985296814
23,0.0661311865323651,0.0661311865323651,0.0661311865323651,0.0661311865323651,0.00018477533605476616,0.0001847753360547668,0.00018477533605476367,0.00018477533605475965
24,0.0684547105928688,0.0684547105928688,0.0684547105928688,0.0684547105928688,0.00018402908652066343,0.00018402908652066406,0.00018402908652066094,0.00018402908652065693
25,0.0707106781186547,0.0707106781186547,0.0707106781186547,0.0707106781186547,0.00018329181932373365,0.00018329181932373427,0.00018329181932373118,0.00018329181932372722
26,0.0728968627421411,0.0728968627421411,0.0728968627421411,0.0728968627421411,0.00018256334817492404,0.00018256334817492466,0.00018256334817492155,0.00018256334817491761
27,0.0750111069630459,0.0750111069630459,0.0750111069630459,0.0750111069630459,0.00018184349258108608,0.0001818434925810867,0.00018184349258108362,0.00018184349258107969
28,0.0770513242775789,0.0770513242775789,0.0770513242775789,0.0770513242775789,0.00018113207789846792,0.00018113207789846857,0.0001811320778984655,0.00018113207789846155
29,0.079015501237569,0.079015501237569,0.079015501237569,0.079015501237569,0.00018042893529526677,0.0001804289352952674,0.00018042893529526436,0.00018042893529526043
30,0.0809016994374947,0.0809016994374947,0.0809016994374947,0.0809016994374947,0.00017973390162862604,0.0001797339016286267,0.00017973390162862363,0.00017973390162861973
31,0.0827080574274561,0.0827080574274561,0.0827080574274561,0.0827080574274561,0.00017904681925639515,0.00017904681925639578,0.00017904681925639274,0.00017904681925638884
32,0.0844327925502015,0.0844327925502015,0.0844327925502015,0.0844327925502015,0.00017836753579453322,0.00017836753579453384,0.00017836753579453084,0.00017836753579452693
33,0.0860742027003943,0.0860742027003943,0.0860742027003943,0.0860742027003943,0.00017769590384007812,0.00017769590384007878,0.00017769590384007574,0.0001776959038400719
34,0.0876306680043863,0.0876306680043863,0.0876306680043863,0.0876306680043863,0.00017703178067245094,0.00017703178067245154,0.00017703178067244855,0.0001770317806724447
35,0.0891006524188367,0.0891006524188367,0.0891006524188367,0.0891006524188367,0.00017637502794846458,0.00017637502794846523,0.00017637502794846225,0.0001763750279484584
36,0.0904827052466019,0.0904827052466019,0.0904827052466019,0.0904827052466019,0.000175725511402403,0.00017572551140240364,0.00017572551140240068,0.00017572551140239686
37,0.0917754625683981,0.0917754625683981,0.0917754625683981,0.0917754625683981,0.0001750831005605619,0.0001750831005605625,0.00017508310056055956,0.00017508310056055574
38,0.0929776485888251,0.0929776485888251,0.0929776485888251,0.0929776485888251,0.00017444766847802813,0.00017444766847802878,0.00017444766847802583,0.000174447668478022
39,0.0940880768954225,0.0940880768954225,0.0940880768954225,0.0940880768954225,0.00017381909150153814,0.0001738190915015388,0.00017381909150153584,0.00017381909150153204
40,0.0951056516295153,0.0951056516295153,0.0951056516295153,0.0951056516295153,0.0001731972490618693,0.00017319724906186989,0.00017319724906186698,0.00017319724906186322
41,0.0960293685676943,0.0960293685676943,0.0960293685676943,0.0960293685676943,0.00017258202349541092,0.00017258202349541154,0.00017258202349540862,0.00017258202349540485
42,0.0968583161128631,0.0968583161128631,0.0968583161128631,0.0968583161128631,0.00017197329989458558,0.00017197329989458618,0.0001719732998945833,0.00017197329989457954
43,0.0975916761938747,0.0975916761938747,0.0975916761938747,0.0975916761938747,0.00017137096598419127,0.00017137096598419187,0.000171370965984189,0.00017137096598418525
44,0.0982287250728688,0.0982287250728688,0.0982287250728688,0.0982287250728688,0.00017077491202084337,0.000170774912020844,0.0001707749120208411,0.00017077491202083738
45,0.0987688340595137,0.0987688340595137,0.0987688340595137,0.0987688340595137,0.0001701850307114991,0.0001701850307114997,0.00017018503071149682,0.00017018503071149313
46,0.0992114701314478,0.0992114701314478,0.0992114701314478,0.0992114701314478,0.0001696012171472175,0.00016960121714721809,0.0001696012171472152,0.00016960121714721153
47,0.099556196460308,0.099556196460308,0.099556196460308,0.099556196460308,0.00016902336874820783,0.00016902336874820843,0.00016902336874820555,0.00016902336874820187
48,0.0998026728428271,0.0998026728428271,0.0998026728428271,0.0998026728428271,0.00016845138521650511,0.0001684513852165057,0.00016845138521650287,0.0001684513852164992
49,0.0999506560365731,0.0999506560365731,0.0999506560365731,0.0999506560365731,0.00016788516849314578,0.00016788516849314638,0.00016788516849314353,0.00016788516849313987
50,0.1,0.1,0.1,0.1,0.00016732462271711504,0.00016732462271711564,0.0001673246227171128,0.00016732462271710916
51,0.0999506560365731,0.0999506560365731,0.0999506560365731,0.0999506560365731,0.00016676965418410268,0.00016676965418410328,0.00016676965418410043,0.0001667696541840968
52,0.0998026728428271,0.0998026728428271,0.0998026728428271,0.0998026728428271,0.00016622017130354336,0.00016622017130354393,0.0001662201713035411,0.0001662201713035375
53,0.099556196460308,0.099556196460308,0.099556196460308,0.099556196460308,0.00016567608455313835,0.00016567608455313895,0.00016567608455313616,0.00016567608455313253
54,0.0992114701314478,0.0992114701314478,0.0992114701314478,0.0992114701314478,0.00016513730643044494,0.0001651373064304455,0.00016513730643044275,0.00016513730643043914
55,0.0987688340595137,0.0987688340595137,0.0987688340595137,0.0987688340595137,0.00016460375140164545,0.00016460375140164605,0.00016460375140164325,0.00016460375140163968
56,0.0982287250728688,0.0982287250728688,0.0982287250728688,0.0982287250728688,0.00016407533584788286,0.00016407533584788343,0.00016407533584788066,0.0001640753358478771
57,0.0975916761938747,0.0975916761938747,0.0975916761938747,0.0975916761938747,0.00016355197800982878,0.00016355197800982938,0.0001635519780098266,0.00016355197800982306
58,0.0968583161128631,0.0968583161128631,0.0968583161128631,0.0968583161128631,0.00016303359793128883,0.00016303359793128942,0.00016303359793128666,0.0001630335979312831
59,0.0960293685676943,0.0960293685676943,0.0960293685676943,0.0960293685676943,0.0001625201174027005,0.0001625201174027011,0.00016252011740269833,0.00016252011740269478
60,0.0951056516295153,0.0951056516295153,0.0951056516295153,0.0951056516295153,0.00016201145990539878,0.00016201145990539932,0.00016201145990539658,0.00016201145990539306
61,0.0940880768954225,0.0940880768954225,0.0940880768954225,0.0940880768954225,0.00016150755055740755,0.0001615075505574081,0.00016150755055740535,0.00016150755055740186
62,0.0929776485888251,0.0929776485888251,0.0929776485888251,0.0929776485888251,0.00016100831606145083,0.00016100831606145137,0.00016100831606144866,0.00016100831606144514
63,0.0917754625683981,0.0917754625683981,0.0917754625683981,0.0917754625683981,0.00016051368465567445,0.00016051368465567502,0.0001605136846556723,0.00016051368465566881
64,0.0904827052466019,0.0904827052466019,0.0904827052466019,0.0904827052466019,0.0001600235860674601,0.00016002358606746067,0.00016002358606745793,0.0001600235860674545
65,0.0891006524188368,0.0891006524188368,0.0891006524188368,0.0891006524188368,0.00015953795147050076,0.0001595379514705013,0.00015953795147049862,0.00015953795147049513
66,0.0876306680043863,0.0876306680043863,0.0876306680043863,0.0876306680043863,0.0001590567134451874,0.00015905671344518794,0.00015905671344518526,0.0001590567134451818
67,0.0860742027003943,0.0860742027003943,0.0860742027003943,0.0860742027003943,0.0001585798059421907,0.00015857980594219124,0.00015857980594218856,0.0001585798059421851
68,0.0844327925502015,0.0844327925502015,0.0844327925502015,0.0844327925502015,0.0001581071642490178,0.00015810716424901835,0.00015810716424901567,0.00015810716424901223
69,0.0827080574274561,0.0827080574274561,0.0827080574274561,0.0827080574274561,0.00015763872495923214,0.00015763872495923266,0.00015763872495923,0.00015763872495922656
70,0.0809016994374947,0.0809016994374947,0.0809016994374947,0.0809016994374947,0.0001571744259439535,0.00015717442594395404,0.00015717442594395136,0.00015717442594394794
71,0.079015501237569,0.079015501237569,0.079015501237569,0.079015501237569,0.0001567142063252377,0.00015671420632523822,0.00015671420632523556,0.00015671420632523217
72,0.0770513242775789,0.0770513242775789,0.0770513242775789,0.0770513242775789,0.00015625800645090494,0.00015625800645090548,0.00015625800645090285,0.00015625800645089943
73,0.0750111069630459,0.0750111069630459,0.0750111069630459,0.0750111069630459,0.00015580576787042414,0.00015580576787042465,0.00015580576787042202,0.00015580576787041863
74,0.0728968627421411,0.0728968627421411,0.0728968627421411,0.0728968627421411,0.00015535743331146964,0.00015535743331147018,0.00015535743331146755,0.00015535743331146417
75,0.0707106781186547,0.0707106781186547,0.0707106781186547,0.0707106781186547,0.00015491294665683584,0.00015491294665683639,0.00015491294665683376,0.0001549129466568304
76,0.0684547105928688,0.0684547105928688,0.0684547105928688,0.0684547105928688,0.0001544722529214336,0.00015447225292143413,0.0001544722529214315,0.00015447225292142817
77,0.0661311865323651,0.0661311865323651,0.0661311865323651,0.0661311865323651,0.00015403529822916883,0.00015403529822916937,0.00015403529822916674,0.0001540352982291634
78,0.0637423989748689,0.0637423989748689,0.0637423989748689,0.0637423989748689,0.00015360202978955816,0.0001536020297895587,0.00015360202978955607,0.00015360202978955274
79,0.0612907053652976,0.0612907053652976,0.0612907053652976,0.0612907053652976,0.00015317239587400242,0.00015317239587400296,0.00015317239587400036,0.00015317239587399705
80,0.0587785252292473,0.0587785252292473,0.0587785252292473,0.0587785252292473,0.00015274634579169472,0.00015274634579169526,0.00015274634579169266,0.00015274634579168935
81,0.056208337785213,0.056208337785213,0.056208337785213,0.056208337785213,0.0001523238298651865,0.000152323829865187,0.00015232382986518444,0.00015232382986518113
82,0.0535826794978996,0.0535826794978996,0.0535826794978996,0.0535826794978996,0.00015190479940568072,0.00015190479940568126,0.00015190479940567868,0.00015190479940567538
83,0.0509041415750371,0.0509041415750371,0.0509041415750371,0.0509041415750371,0.0001514892066881469,0.00015148920668814743,0.00015148920668814486,0.00015148920668814155
84,0.0481753674101715,0.0481753674101715,0.0481753674101715,0.0481753674101715,0.0001510770049263798,0.00015107700492638035,0.00015107700492637778,0.0001510770049263745
85,0.0453990499739546,0.0453990499739546,0.0453990499739546,0.0453990499739546,0.00015066814824813262,0.00015066814824813316,0.0001506681482481306,0.0001506681482481273
86,0.0425779291565072,0.0425779291565072,0.0425779291565072,0.0425779291565072,0.00015026259167046224,0.00015026259167046278,0.00015026259167046023,0.00015026259167045698
87,0.039714789063478,0.039714789063478,0.039714789063478,0.039714789063478,0.0001498602910754199,0.00014986029107542044,0.00014986029107541787,0.00014986029107541464
88,0.0368124552684678,0.0368124552684678,0.0368124552684678,0.0368124552684678,0.00014946120318621214,0.00014946120318621268,0.00014946120318621014,0.00014946120318620688
89,0.0338737920245291,0.0338737920245291,0.0338737920245291,0.0338737920245291,0.00014906528554394294,0.00014906528554394345,0.00014906528554394093,0.00014906528554393768
90,0.0309016994374947,0.0309016994374947,0.0309016994374947,0.0309016994374947,0.000148672496485031,0.0001486724964850315,0.00014867249648502898,0.00014867249648502576
91,0.0278991106039229,0.0278991106039229,0.0278991106039229,0.0278991106039229,0.00014828279511937707,0.00014828279511937758,0.00014828279511937509,0.00014828279511937186
92,0.0248689887164854,0.0248689887164854,0.0248689887164854,0.0248689887164854,0.0001478961413093362,0.00014789614130933674,0.00014789614130933422,0.000147896141309331
93,0.0218143241396542,0.0218143241396542,0.0218143241396542,0.0218143241396542,0.00014751249564952994,0.00014751249564953046,0.00014751249564952796,0.00014751249564952477
94,0.0187381314585724,0.0187381314585724,0.0187381314585724,0.0187381314585724,0.00014713181944751535,0.00014713181944751586,0.00014713181944751337,0.00014713181944751017
95,0.0156434465040231,0.0156434465040231,0.0156434465040231,0.0156434465040231,0.0001467540747053102,0.0001467540747053107,0.0001467540747053082,0.00014675407470530504
96,0.0125333233564304,0.0125333233564304,0.0125333233564304,0.0125333233564304,0.00014637922410175931,0.0001463792241017598,0.00014637922410175734,0.00014637922410175416
97,0.0094108313318514,0.0094108313318514,0.0094108313318514,0.0094108313318514,0.00014600723097571452,0.00014600723097571506,0.00014600723097571257,0.0001460072309757094
98,0.0062790519529313,0.0062790519529313,0.0062790519529313,0.0062790519529313,0.00014563805930999115,0.0001456380593099917,0.0001456380593099892,0.00014563805930998603
99,0.0031410759078128,0.0031410759078128,0.0031410759078128,0.0031410759078128,0.0001452716737160566,0.0001452716737160571,0.00014527167371605464,0.00014527167371605147
100,1.2246467991473533e-17,1.2246467991473533e-17,1.2246467991473533e-17,1.2246467991473533e-17,0.00014490803941940162,0.00014490803941940214,0.0001449080394193997,0.00014490803941939656
101,-0.0031410759078128,-0.0031410759078128,-0.0031410759078128,-0.0031410759078128,0.00013570003553194755,0.00013570003553194852,0.0001357000355319459,0.00013570003553194248
102,-0.0062790519529313,-0.0062790519529313,-0.0062790519529313,-0.0062790519529313,0.00012897011651272515,0.00012897011651272658,0.00012897011651272352,0.00012897011651272005
103,-0.0094108313318514,-0.0094108313318514,-0.0094108313318514,-0.0094108313318514,0.00012457859004399755,0.00012457859004399942,0.00012457859004399603,0.0001245785900439925
104,-0.0125333233564304,-0.0125333233564304,-0.0125333233564304,-0.0125333233564304,0.00012204938728932893,0.00012204938728933115,0.00012204938728932738,0.00012204938728932387
105,-0.015643446504023,-0.015643446504023,-0.015643446504023,-0.015643446504023,0.00012088037847796903,0.00012088037847797148,0.00012088037847796748,0.00012088037847796397
106,-0.0187381314585724,-0.0187381314585724,-0.0187381314585724,-0.0187381314585724,0.0001205315633588049,0.00012053156335880751,0.00012053156335880333,0.00012053156335879984
107,-0.0218143241396542,-0.0218143241396542,-0.0218143241396542,-0.0218143241396542,0.00012051288991980195,0.00012051288991980458,0.00012051288991980038,0.00012051288991979687
108,-0.0248689887164854,-0.0248689887164854,-0.0248689887164854,-0.0248689887164854,0.00012043005314869021,0.00012043005314869279,0.00012043005314868865,0.00012043005314868516
109,-0.0278991106039229,-0.0278991106039229,-0.0278991106039229,-0.0278991106039229,0.00011999382020415775,0.00011999382020416022,0.00011999382020415625,0.00011999382020415273
110,-0.0309016994374947,-0.0309016994374947,-0.0309016994374947,-0.0309016994374947,0.0001189877834795652,0.00011898778347956748,0.00011898778347956381,0.00011898778347956025
111,-0.0338737920245291,-0.0338737920245291,-0.0338737920245291,-0.0338737920245291,0.00011731176975568172,0.00011731176975568377,0.00011731176975568042,0.00011731176975567678
112,-0.0368124552684677,-0.0368124552684677,-0.0368124552684677,-0.0368124552684677,0.00011488634355840456,0.00011488634355840637,0.0001148863435584034,0.00011488634355839972
113,-0.039714789063478,-0.039714789063478,-0.039714789063478,-0.039714789063478,0.0001117305577965491,0.00011173055779655069,0.00011173055779654812,0.00011173055779654438
114,-0.0425779291565072,-0.0425779291565072,-0.0425779291565072,-0.0425779291565072,0.00010786181178350296,0.00010786181178350431,0.00010786181178350214,0.00010786181178349842
115,-0.0453990499739546,-0.0453990499739546,-0.0453990499739546,-0.0453990499739546,0.00010335875646064355,0.00010335875646064466,0.0001033587564606429,0.00010335875646063916
116,-0.0481753674101715,-0.0481753674101715,-0.0481753674101715,-0.0481753674101715,9.83058685566839e-05,9.83058685566849e-05,9.830586855668347e-05,9.830586855667977e-05
117,-0.0509041415750371,-0.0509041415750371,-0.0509041415750371,-0.0509041415750371,9.280549474899744e-05,9.280549474899822e-05,9.280549474899716e-05,9.28054947489935e-05
118,-0.0535826794978996,-0.0535826794978996,-0.0535826794978996,-0.0535826794978996,8.69847860381555e-05,8.698478603815624e-05,8.698478603815536e-05,8.698478603815186e-05
119,-0.056208337785213,-0.056208337785213,-0.056208337785213,-0.056208337785213,8.095374121641981e-05,8.09537412164204e-05,8.095374121641981e-05,8.095374121641638e-05
120,-0.0587785252292473,-0.0587785252292473,-0.0587785252292473,-0.0587785252292473,7.486110321746339e-05,7.486110321746405e-05,7.486110321746347e-05,7.486110321746027e-05
121,-0.0612907053652976,-0.0612907053652976,-0.0612907053652976,-0.0612907053652976,6.882059533594076e-05,6.882059533594133e-05,6.882059533594086e-05,6.882059533593782e-05
122,-0.0637423989748689,-0.0637423989748689,-0.0637423989748689,-0.0637423989748689,6.298520863001919e-05,6.298520863001986e-05,6.298520863001925e-05,6.298520863001652e-05
123,-0.0661311865323651,-0.0661311865323651,-0.0661311865323651,-0.0661311865323651,5.747159387567573e-05,5.747159387567634e-05,5.747159387567566e-05,5.7471593875673165e-05
124,-0.0684547105928688,-0.0684547105928688,-0.0684547105928688,-0.0684547105928688,5.242074875483415e-05,5.242074875483482e-05,5.2420748754833894e-05,5.242074875483175e-05
125,-0.0707106781186547,-0.0707106781186547,-0.0707106781186547,-0.0707106781186547,4.7941485073022515e-05,4.7941485073023145e-05,4.7941485073022e-05,4.794148507302016e-05
126,-0.0728968627421411,-0.0728968627421411,-0.0728968627421411,-0.0728968627421411,4.4135599070695256e-05,4.413559907069585e-05,4.413559907069442e-05,4.4135599070692945e-05
127,-0.0750111069630459,-0.0750111069630459,-0.0750111069630459,-0.0750111069630459,4.106543935975012e-05,4.1065439359750676e-05,4.106543935974897e-05,4.106543935974782e-05
128,-0.0770513242775789,-0.0770513242775789,-0.0770513242775789,-0.0770513242775789,3.8744577409962766e-05,3.874457740996326e-05,3.874457740996128e-05,3.874457740996044e-05
129,-0.079015501237569,-0.079015501237569,-0.079015501237569,-0.079015501237569,3.713349049838055e-05,3.713349049838098e-05,3.7133490498378796e-05,3.713349049837822e-05
130,-0.0809016994374947,-0.0809016994374947,-0.0809016994374947,-0.0809016994374947,3.6130409560784966e-05,3.613040956078533e-05,3.613040956078298e-05,3.6130409560782615e-05
131,-0.0827080574274561,-0.0827080574274561,-0.0827080574274561,-0.0827080574274561,3.560066065087493e-05,3.560066065087526e-05,3.56006606508728e-05,3.5600660650872575e-05
132,-0.0844327925502015,-0.0844327925502015,-0.0844327925502015,-0.0844327925502015,3.538768771178468e-05,3.538768771178497e-05,3.538768771178245e-05,3.538768771178232e-05
133,-0.0860742027003943,-0.0860742027003943,-0.0860742027003943,-0.0860742027003943,3.534482061656793e-05,3.53448206165682e-05,3.5344820616565666e-05,3.534482061656557e-05
134,-0.0876306680043863,-0.0876306680043863,-0.0876306680043863,-0.0876306680043863,3.5344173673933984e-05,3.534417367393426e-05,3.534417367393173e-05,3.534417367393163e-05
135,-0.0891006524188367,-0.0891006524188367,-0.0891006524188367,-0.0891006524188367,3.5285776945607546e-05,3.528577694560784e-05,3.5285776945605324e-05,3.528577694560519e-05
136,-0.0904827052466019,-0.0904827052466019,-0.0904827052466019,-0.0904827052466019,3.5097512320416335e-05,3.5097512320416653e-05,3.5097512320414167e-05,3.509751232041398e-05
137,-0.0917754625683981,-0.0917754625683981,-0.0917754625683981,-0.0917754625683981,3.4731657420068705e-05,3.4731657420069064e-05,3.473165742006661e-05,3.4731657420066346e-05
138,-0.0929776485888251,-0.0929776485888251,-0.0929776485888251,-0.0929776485888251,3.4161435186492935e-05,3.416143518649333e-05,3.4161435186490916e-05,3.416143518649057e-05
139,-0.0940880768954225,-0.0940880768954225,-0.0940880768954225,-0.0940880768954225,3.337713862073742e-05,3.337713862073786e-05,3.337713862073549e-05,3.337713862073506e-05
140,-0.0951056516295153,-0.0951056516295153,-0.0951056516295153,-0.0951056516295153,3.238114920691967e-05,3.2381149206920155e-05,3.238114920691782e-05,3.23811492069173e-05
141,-0.0960293685676943,-0.0960293685676943,-0.0960293685676943,-0.0960293685676943,3.118750732840474e-05,3.118750732840527e-05,3.118750732840298e-05,3.118750732840238e-05
142,-0.0968583161128631,-0.0968583161128631,-0.0968583161128631,-0.0968583161128631,2.981580291664255e-05,2.9815802916643123e-05,2.981580291664087e-05,2.981580291664021e-05
143,-0.0975916761938747,-0.0975916761938747,-0.0975916761938747,-0.0975916761938747,2.8293511385970288e-05,2.82935113859709e-05,2.8293511385968702e-05,2.829351138596797e-05
144,-0.0982287250728688,-0.0982287250728688,-0.0982287250728688,-0.0982287250728688,2.6649882788853914e-05,2.664988278885456e-05,2.6649882788852424e-05,2.6649882788851638e-05
145,-0.0987688340595137,-0.0987688340595137,-0.0987688340595137,-0.0987688340595137,2.491903889824637e-05,2.4919038898247047e-05,2.4919038898244983e-05,2.4919038898244153e-05
146,-0.0992114701314477,-0.0992114701314477,-0.0992114701314477,-0.0992114701314477,2.3135296075201968e-05,2.313529607520266e-05,2.3135296075200687e-05,2.3135296075199837e-05
147,-0.099556196460308,-0.099556196460308,-0.099556196460308,-0.099556196460308,2.133530759059253e-05,2.1335307590593226e-05,2.133530759059137e-05,2.1335307590590505e-05
148,-0.0998026728428271,-0.0998026728428271,-0.0998026728428271,-0.0998026728428271,1.9555696703050552e-05,1.9555696703051236e-05,1.9555696703049515e-05,1.9555696703048675e-05
149,-0.0999506560365731,-0.0999506560365731,-0.0999506560365731,-0.0999506560365731,1.783338697529088e-05,1.7833386975291536e-05,1.7833386975289988e-05,1.7833386975289178e-05
150,-0.1,-0.1,-0.1,-0.1,1.6205328255315356e-05,1.620532825531598e-05,1.6205328255314625e-05,1.6205328255313886e-05
151,-0.0999506560365731,-0.0999506560365731,-0.0999506560365731,-0.0999506560365731,1.4706744067171137e-05,1.4706744067171694e-05,1.470674406717058e-05,1.4706744067169922e-05
152,-0.0998026728428271,-0.0998026728428271,-0.0998026728428271,-0.0998026728428271,1.337135020860735e-05,1.337135020860784e-05,1.3371350208606983e-05,1.3371350208606455e-05
153,-0.099556196460308,-0.099556196460308,-0.099556196460308,-0.099556196460308,1.2227079833054426e-05,1.2227079833054823e-05,1.2227079833054257e-05,1.2227079833053869e-05
154,-0.0992114701314478,-0.0992114701314478,-0.0992114701314478,-0.0992114701314478,1.1294399680634872e-05,1.1294399680635178e-05,1.1294399680634907e-05,1.1294399680634696e-05
155,-0.0987688340595137,-0.0987688340595137,-0.0987688340595137,-0.0987688340595137,1.0580159184732743e-05,1.0580159184732951e-05,1.0580159184732975e-05,1.0580159184732934e-05
156,-0.0982287250728688,-0.0982287250728688,-0.0982287250728688,-0.0982287250728688,1.0075554301318491e-05,1.0075554301318611e-05,1.0075554301318896e-05,1.0075554301319028e-05
157,-0.0975916761938747,-0.0975916761938747,-0.0975916761938747,-0.0975916761938747,9.754667425603015e-06,9.754667425603066e-06,9.754667425603562e-06,9.754667425603844e-06
158,-0.0968583161128631,-0.0968583161128631,-0.0968583161128631,-0.0968583161128631,9.578973471667378e-06,9.57897347166738e-06,9.578973471668025e-06,9.578973471668427e-06
159,-0.0960293685676943,-0.0960293685676943,-0.0960293685676943,-0.0960293685676943,9.503797570172441e-06,9.503797570172428e-06,9.503797570173156e-06,9.503797570173642e-06
160,-0.0951056516295153,-0.0951056516295153,-0.0951056516295153,-0.0951056516295153,9.485381337067976e-06,9.485381337067964e-06,9.48538133706872e-06,9.485381337069259e-06
161,-0.0940880768954225,-0.0940880768954225,-0.0940880768954225,-0.0940880768954225,9.48575582833555e-06,9.485755828335562e-06,9.485755828336298e-06,9.48575582833686e-06
162,-0.0929776485888251,-0.0929776485888251,-0.0929776485888251,-0.0929776485888251,9.474961022673081e-06,9.474961022673142e-06,9.474961022673808e-06,9.474961022674379e-06
163,-0.0917754625683981,-0.0917754625683981,-0.0917754625683981,-0.0917754625683981,9.431288781077552e-06,9.43128878107766e-06,9.431288781078242e-06,9.431288781078806e-06
164,-0.0904827052466019,-0.0904827052466019,-0.0904827052466019,-0.0904827052466019,9.340510471699413e-06,9.340510471699598e-06,9.340510471700058e-06,9.340510471700618e-06
165,-0.0891006524188368,-0.0891006524188368,-0.0891006524188368,-0.0891006524188368,9.194529377316626e-06,9.194529377316867e-06,9.194529377317209e-06,9.194529377317761e-06
166,-0.0876306680043863,-0.0876306680043863,-0.0876306680043863,-0.0876306680043863,8.99029169454565e-06,8.990291694545978e-06,8.99029169454617e-06,8.99029169454673e-06
167,-0.0860742027003943,-0.0860742027003943,-0.0860742027003943,-0.0860742027003943,8.728521813472448e-06,8.728521813472833e-06,8.728521813472894e-06,8.728521813473473e-06
168,-0.0844327925502015,-0.0844327925502015,-0.0844327925502015,-0.0844327925502015,8.41296357436401e-06,8.412963574364484e-06,8.412963574364391e-06,8.412963574365006e-06
169,-0.0827080574274561,-0.0827080574274561,-0.0827080574274561,-0.0827080574274561,8.049533517809593e-06,8.04953351781013e-06,8.0495335178099e-06,8.049533517810573e-06
170,-0.0809016994374947,-0.0809016994374947,-0.0809016994374947,-0.0809016994374947,7.645806978551597e-06,7.645806978552217e-06,7.645806978551848e-06,7.645806978552594e-06
171,-0.079015501237569,-0.079015501237569,-0.079015501237569,-0.079015501237569,7.210555277524369e-06,7.21055527752506e-06,7.210555277524565e-06,7.210555277525407e-06
172,-0.0770513242775789,-0.0770513242775789,-0.0770513242775789,-0.0770513242775789,6.7533487871606265e-06,6.7533487871614015e-06,6.753348787160784e-06,6.753348787161742e-06
173,-0.0750111069630459,-0.0750111069630459,-0.0750111069630459,-0.0750111069630459,6.284372761053166e-06,6.284372761054031e-06,6.284372761053291e-06,6.284372761054396e-06
174,-0.0728968627421411,-0.0728968627421411,-0.0728968627421411,-0.0728968627421411,5.814091346045591e-06,5.814091346046551e-06,5.814091346045702e-06,5.814091346046972e-06
175,-0.0707106781186547,-0.0707106781186547,-0.0707106781186547,-0.0707106781186547,5.353203203067959e-06,5.353203203069027e-06,5.353203203068062e-06,5.353203203069526e-06
176,-0.0684547105928689,-0.0684547105928689,-0.0684547105928689,-0.0684547105928689,4.912312939365642e-06,4.912312939366826e-06,4.912312939365755e-06,4.912312939367435e-06
177,-0.0661311865323652,-0.0661311865323652,-0.0661311865323652,-0.0661311865323652,4.501809598963936e-06,4.501809598965248e-06,4.501809598964062e-06,4.501809598965977e-06
178,-0.063742398974869,-0.063742398974869,-0.063742398974869,-0.063742398974869,4.13136442867803e-06,4.131364428679471e-06,4.131364428678178e-06,4.131364428680352e-06
179,-0.0612907053652976,-0.0612907053652976,-0.0612907053652976,-0.0612907053652976,3.8093878343788745e-06,3.809387834380448e-06,3.809387834379046e-06,3.8093878343814715e-06
180,-0.0587785252292473,-0.0587785252292473,-0.0587785252292473,-0.0587785252292473,3.5420863698865796e-06,3.5420863698882656e-06,3.5420863698867727e-06,3.542086369889457e-06
181,-0.056208337785213,-0.056208337785213,-0.056208337785213,-0.056208337785213,3.3324367128201077e-06,3.3324367128218907e-06,3.3324367128203178e-06,3.3324367128232197e-06
182,-0.0535826794978997,-0.0535826794978997,-0.0535826794978997,-0.0535826794978997,3.179315667230544e-06,3.1793156672323784e-06,3.1793156672307597e-06,3.179315667233853e-06
183,-0.0509041415750372,-0.0509041415750372,-0.0509041415750372,-0.0509041415750372,3.077268183966382e-06,3.077268183968235e-06,3.077268183966596e-06,3.0772681839698134e-06
184,-0.0481753674101715,-0.0481753674101715,-0.0481753674101715,-0.0481753674101715,3.017260689779524e-06,3.0172606897813416e-06,3.0172606897797247e-06,3.0172606897830205e-06
185,-0.0453990499739547,-0.0453990499739547,-0.0453990499739547,-0.0453990499739547,2.9881593628949553e-06,2.988159362896707e-06,2.9881593628951383e-06,2.9881593628984536e-06
186,-0.0425779291565073,-0.0425779291565073,-0.0425779291565073,-0.0425779291565073,2.9784655657801015e-06,2.978465565781752e-06,2.978465565780262e-06,2.9784655657835583e-06
187,-0.0397147890634781,-0.0397147890634781,-0.0397147890634781,-0.0397147890634781,2.9776783396354197e-06,2.9776783396369516e-06,2.9776783396355587e-06,2.9776783396388045e-06
188,-0.0368124552684677,-0.0368124552684677,-0.0368124552684677,-0.0368124552684677,2.977099302210126e-06,2.977099302211528e-06,2.977099302210244e-06,2.977099302213421e-06
189,-0.0338737920245291,-0.0338737920245291,-0.0338737920245291,-0.0338737920245291,2.970100907026454e-06,2.970100907027722e-06,2.9701009070265563e-06,2.9701009070296535e-06
190,-0.0309016994374947,-0.0309016994374947,-0.0309016994374947,-0.0309016994374947,2.9520555060415197e-06,2.9520555060426577e-06,2.952055506041607e-06,2.952055506044624e-06
191,-0.0278991106039229,-0.0278991106039229,-0.0278991106039229,-0.0278991106039229,2.920098083771477e-06,2.9200980837724933e-06,2.92009808377156e-06,2.9200980837744945e-06
192,-0.0248689887164854,-0.0248689887164854,-0.0248689887164854,-0.0248689887164854,2.8728356190823566e-06,2.872835619083262e-06,2.8728356190824286e-06,2.872835619085294e-06
193,-0.0218143241396542,-0.0218143241396542,-0.0218143241396542,-0.0218143241396542,2.8100647327626985e-06,2.810064732763509e-06,2.810064732762774e-06,2.8100647327655716e-06
194,-0.0187381314585724,-0.0187381314585724,-0.0187381314585724,-0.0187381314585724,2.732527494703255e-06,2.7325274947039853e-06,2.732527494703322e-06,2.7325274947060753e-06
195,-0.0156434465040231,-0.0156434465040231,-0.0156434465040231,-0.0156434465040231,2.641697956196254e-06,2.6416979561969185e-06,2.641697956196324e-06,2.6416979561990373e-06
196,-0.0125333233564304,-0.0125333233564304,-0.0125333233564304,-0.0125333233564304,2.539617416601411e-06,2.5396174166020256e-06,2.5396174166014682e-06,2.5396174166041715e-06
197,-0.0094108313318514,-0.0094108313318514,-0.0094108313318514,-0.0094108313318514,2.428745531598062e-06,2.428745531598637e-06,2.428745531598109e-06,2.428745531600815e-06
198,-0.0062790519529313,-0.0062790519529313,-0.0062790519529313,-0.0062790519529313,2.311849987123316e-06,2.311849987123863e-06,2.311849987123334e-06,2.3118499871260777e-06
199,-0.0031410759078128,-0.0031410759078128,-0.0031410759078128,-0.0031410759078128,2.1918970115569026e-06,2.191897011557427e-06,2.1918970115568826e-06,2.191897011559689e-06
200,-2.4492935982947065e-17,-2.4492935982947065e-17,-2.4492935982947065e-17,-2.4492935982947065e-17,2.0719614644426876e-06,2.071961464443189e-06,2.071961464442605e-06,2.071961464445514e-06
201,0.0031410759078128,0.0031410759078128,0.0031410759078128,0.0031410759078128,1.9551245949409763e-06,1.9551245949414523e-06,1.955124594940809e-06,1.955124594943858e-06
202,0.0062790519529313,0.0062790519529313,0.0062790519529313,0.0062790519529313,1.8443649782794714e-06,1.8443649782799021e-06,1.8443649782791847e-06,1.8443649782824172e-06
203,0.0094108313318514,0.0094108313318514,0.0094108313318514,0.0094108313318514,1.7424241686261691e-06,1.7424241686265323e-06,1.7424241686257293e-06,1.7424241686291829e-06
204,0.0125333233564304,0.0125333233564304,0.0125333233564304,0.0125333233564304,1.6516456100026602e-06,1.6516456100029083e-06,1.6516456100020209e-06,1.6516456100057343e-06
205,0.0156434465040231,0.0156434465040231,0.0156434465040231,0.0156434465040231,1.5737977466685938e-06,1.5737977466686749e-06,1.573797746667714e-06,1.5737977466717102e-06
206,0.0187381314585725,0.0187381314585725,0.0187381314585725,0.0187381314585725,1.5099005364418784e-06,1.5099005364417154e-06,1.5099005364407112e-06,1.5099005364450023e-06
207,0.0218143241396542,0.0218143241396542,0.0218143241396542,0.0218143241396542,1.4601079653298338e-06,1.460107965329346e-06,1.4601079653283436e-06,1.4601079653329187e-06
208,0.0248689887164854,0.0248689887164854,0.0248689887164854,0.0248689887164854,1.4236831639486121e-06,1.4236831639477029e-06,1.4236831639467677e-06,1.4236831639515958e-06
209,0.0278991106039228,0.0278991106039228,0.0278991106039228,0.0278991106039228,1.3991012407255387e-06,1.3991012407241123e-06,1.3991012407233265e-06,1.3991012407283504e-06
210,0.0309016994374947,0.0309016994374947,0.0309016994374947,0.0309016994374947,1.3842580957335515e-06,1.3842580957315095e-06,1.3842580957309695e-06,1.3842580957361116e-06
211,0.0338737920245291,0.0338737920245291,0.0338737920245291,0.0338737920245291,1.3767405276440271e-06,1.3767405276412762e-06,1.3767405276410913e-06,1.3767405276462517e-06
212,0.0368124552684677,0.0368124552684677,0.0368124552684677,0.0368124552684677,1.3740907155492596e-06,1.3740907155457122e-06,1.3740907155460008e-06,1.3740907155510604e-06
213,0.0397147890634779,0.0397147890634779,0.0397147890634779,0.0397147890634779,1.374019063571146e-06,1.3740190635667204e-06,1.3740190635676126e-06,1.3740190635724313e-06
214,0.0425779291565072,0.0425779291565072,0.0425779291565072,0.0425779291565072,1.374543807370924e-06,1.3745438073655484e-06,1.3745438073671813e-06,1.3745438073715988e-06
215,0.0453990499739546,0.0453990499739546,0.0453990499739546,0.0453990499739546,1.3740611676921157e-06,1.3740611676857265e-06,1.3740611676882483e-06,1.3740611676920805e-06
216,0.0481753674101714,0.0481753674101714,0.0481753674101714,0.0481753674101714,1.3713620519637547e-06,1.371362051956302e-06,1.3713620519598706e-06,1.3713620519629062e-06
217,0.050904141575037,0.050904141575037,0.050904141575037,0.050904141575037,1.3656140760379781e-06,1.3656140760294263e-06,1.3656140760342097e-06,1.3656140760362102e-06
218,0.0535826794978996,0.0535826794978996,0.0535826794978996,0.0535826794978996,1.3563240252579644e-06,1.356324025248301e-06,1.356324025254476e-06,1.3563240252551677e-06
219,0.056208337785213,0.056208337785213,0.056208337785213,0.056208337785213,1.343292223298307e-06,1.3432922232875429e-06,1.3432922232952945e-06,1.3432922232943727e-06
220,0.0587785252292472,0.0587785252292472,0.0587785252292472,0.0587785252292472,1.3265645377178102e-06,1.326564537705996e-06,1.3265645377155132e-06,1.326564537712635e-06
221,0.0612907053652976,0.0612907053652976,0.0612907053652976,0.0612907053652976,1.3063864927160937e-06,1.3063864927033177e-06,1.3063864927147914e-06,1.3063864927095794e-06
222,0.0637423989748689,0.0637423989748689,0.0637423989748689,0.0637423989748689,1.28316015986683e-06,1.283160159853242e-06,1.283160159866854e-06,1.2831601598588989e-06
223,0.0661311865323652,0.0661311865323652,0.0661311865323652,0.0661311865323652,1.2574050138169945e-06,1.2574050138028027e-06,1.2574050138187235e-06,1.2574050138075831e-06
224,0.0684547105928688,0.0684547105928688,0.0684547105928688,0.0684547105928688,1.2297221112302427e-06,1.2297221112157396e-06,1.2297221112341113e-06,1.229722111219331e-06
225,0.0707106781186547,0.0707106781186547,0.0707106781186547,0.0707106781186547,1.2007614344168212e-06,1.200761434402383e-06,1.2007614344233114e-06,1.2007614344044164e-06
226,0.0728968627421411,0.0728968627421411,0.0728968627421411,0.0728968627421411,1.171192046342139e-06,1.1711920463282476e-06,1.171192046351781e-06,1.1711920463283204e-06
227,0.0750111069630459,0.0750111069630459,0.0750111069630459,0.0750111069630459,1.141674461511412e-06,1.1416744614986534e-06,1.1416744615247702e-06,1.1416744614963035e-06
228,0.0770513242775789,0.0770513242775789,0.0770513242775789,0.0770513242775789,1.1128356367117589e-06,1.1128356367008343e-06,1.1128356367294212e-06,1.1128356366955858e-06
229,0.079015501237569,0.079015501237569,0.079015501237569,0.079015501237569,1.0852461985360248e-06,1.0852461985277465e-06,1.0852461985585772e-06,1.0852461985190754e-06
230,0.0809016994374947,0.0809016994374947,0.0809016994374947,0.0809016994374947,1.0594010597598854e-06,1.0594010597551675e-06,1.0594010597878947e-06,1.0594010597425676e-06
231,0.0827080574274562,0.0827080574274562,0.0827080574274562,0.0827080574274562,1.0357036211675353e-06,1.0357036211673792e-06,1.0357036212015087e-06,1.0357036211503329e-06
232,0.0844327925502015,0.0844327925502015,0.0844327925502015,0.0844327925502015,1.014455019218865e-06,1.0144550192243328e-06,1.0144550192592325e-06,1.0144550192023786e-06
233,0.0860742027003943,0.0860742027003943,0.0860742027003943,0.0860742027003943,9.958488806630535e-07,9.958488806752374e-07,9.958488807101187e-07,9.958488806479558e-07
234,0.0876306680043863,0.0876306680043863,0.0876306680043863,0.0876306680043863,9.79972406106434e-07,9.79972406126419e-07,9.799724061603647e-07,9.799724060934874e-07
235,0.0891006524188368,0.0891006524188368,0.0891006524188368,0.0891006524188368,9.668135868725311e-07,9.668135869013544e-07,9.66813586933313e-07,9.66813586862547e-07
236,0.0904827052466019,0.0904827052466019,0.0904827052466019,0.0904827052466019,9.562738847665754e-07,9.562738848051878e-07,9.56273884834016e-07,9.562738847604058e-07
237,0.0917754625683981,0.0917754625683981,0.0917754625683981,0.0917754625683981,9.4818501836872e-07,9.481850184179469e-07,9.481850184424166e-07,9.481850183672297e-07
238,0.0929776485888251,0.0929776485888251,0.0929776485888251,0.0929776485888251,9.423279566343181e-07,9.423279566948274e-07,9.423279567136725e-07,9.423279566383562e-07
239,0.0940880768954225,0.0940880768954225,0.0940880768954225,0.0940880768954225,9.384522910509939e-07,9.384522911232697e-07,9.384522911352009e-07,9.384522910613821e-07
240,0.0951056516295153,0.0951056516295153,0.0951056516295153,0.0951056516295153,9.362941307170416e-07,9.362941308013574e-07,9.362941308051021e-07,9.362941307345337e-07
241,0.0960293685676943,0.0960293685676943,0.0960293685676943,0.0960293685676943,9.355913399476043e-07,9.355913400440105e-07,9.35591340038339e-07,9.355913399728913e-07
242,0.0968583161128631,0.0968583161128631,0.0968583161128631,0.0968583161128631,9.360952778254876e-07,9.360952779337904e-07,9.360952779175375e-07,9.360952778591484e-07
243,0.0975916761938747,0.0975916761938747,0.0975916761938747,0.0975916761938747,9.375789015920439e-07,9.375789017118044e-07,9.375789016839091e-07,9.375789016345665e-07
244,0.0982287250728688,0.0982287250728688,0.0982287250728688,0.0982287250728688,9.398413934930592e-07,9.398413936235717e-07,9.398413935830835e-07,9.398413935447811e-07
245,0.0987688340595137,0.0987688340595137,0.0987688340595137,0.0987688340595137,9.427098399806745e-07,9.427098401209791e-07,9.427098400671054e-07,9.427098400418186e-07
246,0.0992114701314477,0.0992114701314477,0.0992114701314477,0.0992114701314477,9.460385879095919e-07,9.460385880584502e-07,9.46038587990559e-07,9.460385879801977e-07
247,0.099556196460308,0.099556196460308,0.099556196460308,0.099556196460308,9.497069568976577e-07,9.497069570535805e-07,9.497069569712408e-07,9.497069569776292e-07
248,0.0998026728428271,0.0998026728428271,0.0998026728428271,0.0998026728428271,9.536159430761517e-07,9.536159432373748e-07,9.536159431403693e-07,9.536159431651857e-07
249,0.0999506560365731,0.0999506560365731,0.0999506560365731,0.0999506560365731,9.576844488859343e-07,9.57684449050461e-07,9.576844489388071e-07,9.576844489835735e-07
250,0.1,0.1,0.1,0.1,9.618454838814843e-07,9.618454840470657e-07,9.61845483921043e-07,9.6184548398705e-07
251,0.0999506560365731,0.0999506560365731,0.0999506560365731,0.0999506560365731,9.66042647086832e-07,9.660426472510237e-07,9.660426471111694e-07,9.660426471994821e-07
252,0.0998026728428271,0.0998026728428271,0.0998026728428271,0.0998026728428271,9.702271166358979e-07,9.702271167960496e-07,9.70227116643198e-07,9.702271167545665e-07
253,0.099556196460308,0.099556196460308,0.099556196460308,0.099556196460308,9.74355259321127e-07,9.7435525947445e-07,9.743552593097046e-07,9.743552594445864e-07
254,0.0992114701314478,0.0992114701314478,0.0992114701314478,0.0992114701314478,9.783869097786275e-07,9.783869099221932e-07,9.783869097469713e-07,9.78386909905441e-07
255,0.0987688340595137,0.0987688340595137,0.0987688340595137,0.0987688340595137,9.822842941169531e-07,9.822842942477723e-07,9.82284294063755e-07,9.82284294245533e-07
256,0.0982287250728688,0.0982287250728688,0.0982287250728688,0.0982287250728688,9.86011534865343e-07,9.860115349803723e-07,9.860115347895464e-07,9.860115349939285e-07
257,0.0975916761938747,0.0975916761938747,0.0975916761938747,0.0975916761938747,9.895346380799102e-07,9.895346381761378e-07,9.895346379807326e-07,9.895346382066092e-07
258,0.0968583161128631,0.0968583161128631,0.0968583161128631,0.0968583161128631,9.92821847747369e-07,9.928218478218314e-07,9.928218476243476e-07,9.928218478701694e-07
259,0.0960293685676943,0.0960293685676943,0.0960293685676943,0.0960293685676943,9.958442486681282e-07,9.958442487179943e-07,9.958442485211354e-07,9.95844248784922e-07
260,0.0951056516295153,0.0951056516295153,0.0951056516295153,0.0951056516295153,9.985764994881782e-07,9.9857649951078e-07,9.985764993174638e-07,9.985764995968e-07
261,0.0940880768954225,0.0940880768954225,0.0940880768954225,0.0940880768954225,1.0009975946774025e-06,1.0009975946703076e-06,1.0009975944835952e-06,1.0009975947756425e-06
262,0.0929776485888251,0.0929776485888251,0.0929776485888251,0.0929776485888251,1.003091563850232e-06,1.0030915638112917e-06,1.0030915636343796e-06,1.003091563935894e-06
263,0.091775462568398,0.091775462568398,0.091775462568398,0.091775462568398,1.0048480430001529e-06,1.0048480429275562e-06,1.0048480427637053e-06,1.0048480430710652e-06
264,0.0904827052466019,0.0904827052466019,0.0904827052466019,0.0904827052466019,1.006262665127153e-06,1.0062626650194902e-06,1.0062626648719976e-06,1.006262665181231e-06
265,0.0891006524188367,0.0891006524188367,0.0891006524188367,0.0891006524188367,1.0073372431157455e-06,1.0073372429720417e-06,1.0073372428441713e-06,1.0073372431510115e-06
266,0.0876306680043863,0.0876306680043863,0.0876306680043863,0.0876306680043863,1.008079730418852e-06,1.0080797302386372e-06,1.0080797301335746e-06,1.008079730433493e-06
267,0.0860742027003943,0.0860742027003943,0.0860742027003943,0.0860742027003943,1.0085039638552022e-06,1.0085039636385288e-06,1.00850396355931e-06,1.0085039638476016e-06
268,0.0844327925502015,0.0844327925502015,0.0844327925502015,0.0844327925502015,1.008629203670574e-06,1.0086292034180763e-06,1.0086292033675362e-06,1.0086292036393586e-06
269,0.0827080574274562,0.0827080574274562,0.0827080574274562,0.0827080574274562,1.0084794962976435e-06,1.0084794960105431e-06,1.0084794959912388e-06,1.0084794962417234e-06
270,0.0809016994374947,0.0809016994374947,0.0809016994374947,0.0809016994374947,1.0080828934876153e-06,1.0080828931677545e-06,1.008082893181917e-06,1.0080828934062186e-06
271,0.079015501237569,0.079015501237569,0.079015501237569,0.079015501237569,1.00747056420297e-06,1.0074705638528077e-06,1.0074705639022615e-06,1.007470564095684e-06
272,0.0770513242775788,0.0770513242775788,0.0770513242775788,0.0770513242775788,1.0066758407525901e-06,1.006675840375198e-06,1.0066758404613224e-06,1.006675840619384e-06
273,0.0750111069630459,0.0750111069630459,0.0750111069630459,0.0750111069630459,1.0057332379544085e-06,1.0057332375534494e-06,1.0057332376771056e-06,1.0057332377956622e-06
274,0.0728968627421411,0.0728968627421411,0.0728968627421411,0.0728968627421411,1.0046774855949664e-06,1.0046774851746515e-06,1.0046774853361572e-06,1.0046774854114853e-06
275,0.0707106781186547,0.0707106781186547,0.0707106781186547,0.0707106781186547,1.0035426086494208e-06,1.0035426082144655e-06,1.0035426084135384e-06,1.0035426084424392e-06
276,0.0684547105928688,0.0684547105928688,0.0684547105928688,0.0684547105928688,1.0023610875552753e-06,1.0023610871108176e-06,1.0023610873465713e-06,1.0023610873264602e-06
277,0.0661311865323651,0.0661311865323651,0.0661311865323651,0.0661311865323651,1.0011631237356259e-06,1.0011631232871524e-06,1.001163123558068e-06,1.0011631234870535e-06
278,0.0637423989748689,0.0637423989748689,0.0637423989748689,0.0637423989748689,9.99976030441819e-07,9.99976029995055e-07,9.999760302990003e-07,9.999760301759595e-07
279,0.0612907053652976,0.0612907053652976,0.0612907053652976,0.0612907053652976,9.988237618987068e-07,9.988237614595111e-07,9.988237617937503e-07,9.988237616183777e-07
280,0.0587785252292473,0.0587785252292473,0.0587785252292473,0.0587785252292473,9.977265870368322e-07,9.97726586611066e-07,9.977265869723075e-07,9.97726586745153e-07
281,0.0562083377852129,0.0562083377852129,0.0562083377852129,0.0562083377852129,9.967009079858207e-07,9.96700907579224e-07,9.967009079636678e-07,9.967009076861544e-07
282,0.0535826794978995,0.0535826794978995,0.0535826794978995,0.0535826794978995,9.957592169202318e-07,9.957592165382815e-07,9.957592169417e-07,9.957592166161065e-07
283,0.050904141575037,0.050904141575037,0.050904141575037,0.050904141575037,9.949101804198131e-07,9.949101800675942e-07,9.949101804854156e-07,9.949101801148563e-07
284,0.0481753674101714,0.0481753674101714,0.0481753674101714,0.0481753674101714,9.941588355534304e-07,9.941588352354972e-07,9.941588356629136e-07,9.941588352512637e-07
285,0.0453990499739546,0.0453990499739546,0.0453990499739546,0.0453990499739546,9.935068795376353e-07,9.935068792578944e-07,9.935068796899778e-07,9.935068792418044e-07
286,0.0425779291565072,0.0425779291565072,0.0425779291565072,0.0425779291565072,9.929530323514799e-07,9.929530321130733e-07,9.929530325449022e-07,9.929530320653388e-07
287,0.039714789063478,0.039714789063478,0.039714789063478,0.039714789063478,9.9249345142523e-07,9.924934512304464e-07,9.92493451657241e-07,9.924934511518689e-07
288,0.0368124552684678,0.0368124552684678,0.0368124552684678,0.0368124552684678,9.92122177565499e-07,9.921221774156957e-07,9.921221778329543e-07,9.921221773076338e-07
289,0.0338737920245291,0.0338737920245291,0.0338737920245291,0.0338737920245291,9.918315927304336e-07,9.918315926259934e-07,9.918315930296304e-07,9.918315924903404e-07
290,0.0309016994374947,0.0309016994374947,0.0309016994374947,0.0309016994374947,9.916128722111872e-07,9.916128721514936e-07,9.916128725379704e-07,9.9161287199061e-07
291,0.0278991106039229,0.0278991106039229,0.0278991106039229,0.0278991106039229,9.914564162937665e-07,9.914564162772216e-07,9.9145641664367e-07,9.91456416093871e-07
292,0.0248689887164855,0.0248689887164855,0.0248689887164855,0.0248689887164855,9.91352249382272e-07,9.913522494063353e-07,9.91352249750666e-07,9.91352249203584e-07
293,0.0218143241396543,0.0218143241396543,0.0218143241396543,0.0218143241396543,9.912903774269695e-07,9.91290377488244e-07,9.91290377809238e-07,9.912903772693553e-07
294,0.0187381314585725,0.0187381314585725,0.0187381314585725,0.0187381314585725,9.912610975075586e-07,9.912610976019014e-07,9.91261097899278e-07,9.912610973702082e-07
295,0.0156434465040232,0.0156434465040232,0.0156434465040232,0.0156434465040232,9.912552560240295e-07,9.91255256146708e-07,9.91255256421167e-07,9.912552559054746e-07
296,0.0125333233564305,0.0125333233564305,0.0125333233564305,0.0125333233564305,9.91264454437356e-07,9.912644545832304e-07,9.912644548364634e-07,9.912644543355031e-07
297,0.0094108313318515,0.0094108313318515,0.0094108313318515,0.0094108313318515,9.912812034899576e-07,9.912812036537024e-07,9.912812038883699e-07,9.912812034021535e-07
298,0.0062790519529313,0.0062790519529313,0.0062790519529313,0.0062790519529313,9.912990285298117e-07,9.91299028706162e-07,9.91299028925835e-07,9.91299028452931e-07
299,0.0031410759078128,0.0031410759078128,0.0031410759078128,0.0031410759078128,9.913125297979412e-07,9.913125299819663e-07,9.913125301910284e-07,9.913125297285023e-07
300,3.67394039744206e-17,3.67394039744206e-17,3.67394039744206e-17,3.67394039744206e-17,9.91317402436678e-07,9.913174026240746e-07,9.913174028275835e-07,9.91317402370984e-07
301,-0.0031410759078127,-0.0031410759078127,-0.0031410759078127,-0.0031410759078127,9.91310421514052e-07,9.913104217014502e-07,9.913104219049594e-07,9.913104214483588e-07
302,-0.0062790519529312,-0.0062790519529312,-0.0062790519529312,-0.0062790519529312,9.91289397611913e-07,9.912893977971881e-07,9.912893980065268e-07,9.912893975426173e-07
303,-0.0094108313318513,-0.0094108313318513,-0.0094108313318513,-0.0094108313318513,9.912531085286785e-07,9.912531087112602e-07,9.912531089322763e-07,9.912531084525266e-07
304,-0.0125333233564303,-0.0125333233564303,-0.0125333233564303,-0.0125333233564303,9.912012124622321e-07,9.912012126434008e-07,9.912012128816682e-07,9.91201212376546e-07
305,-0.0156434465040229,-0.0156434465040229,-0.0156434465040229,-0.0156434465040229,9.911341477015233e-07,9.911341478846848e-07,9.911341481451778e-07,9.911341476044379e-07
306,-0.0187381314585723,-0.0187381314585723,-0.0187381314585723,-0.0187381314585723,9.910530234311418e-07,9.910530236220657e-07,9.910530239088095e-07,9.910530233218449e-07
307,-0.0218143241396542,-0.0218143241396542,-0.0218143241396542,-0.0218143241396542,9.909595057504315e-07,9.90959505957447e-07,9.909595062731495e-07,9.909595056294082e-07
308,-0.0248689887164854,-0.0248689887164854,-0.0248689887164854,-0.0248689887164854,9.908557024987137e-07,9.90855702732847e-07,9.9085570307852e-07,9.90855702367979e-07
309,-0.0278991106039229,-0.0278991106039229,-0.0278991106039229,-0.0278991106039229,9.907440499408708e-07,9.907440502159155e-07,9.907440505904961e-07,9.907440498041889e-07
310,-0.0309016994374947,-0.0309016994374947,-0.0309016994374947,-0.0309016994374947,9.906272038691884e-07,9.906272042016956e-07,9.906272046016772e-07,9.90627203732266e-07
311,-0.033873792024529,-0.033873792024529,-0.033873792024529,-0.033873792024529,9.905079371904416e-07,9.905079375996237e-07,9.905079380187113e-07,9.905079370610912e-07
312,-0.0368124552684677,-0.0368124552684677,-0.0368124552684677,-0.0368124552684677,9.903890456224227e-07,9.90389046129956e-07,9.90389046558755e-07,9.90389045510681e-07
313,-0.0397147890634779,-0.0397147890634779,-0.0397147890634779,-0.0397147890634779,9.902732627339164e-07,9.902732633636426e-07,9.902732637893976e-07,9.902732626521172e-07
314,-0.0425779291565071,-0.0425779291565071,-0.0425779291565071,-0.0425779291565071,9.901631851861338e-07,9.901631859636487e-07,9.90163186370045e-07,9.901631851489165e-07
315,-0.0453990499739547,-0.0453990499739547,-0.0453990499739547,-0.0453990499739547,9.900612087354818e-07,9.900612096876138e-07,9.900612100546533e-07,9.900612087597379e-07
316,-0.0481753674101715,-0.0481753674101715,-0.0481753674101715,-0.0481753674101715,9.899694752658902e-07,9.89969476420064e-07,9.89969476724031e-07,9.899694753706336e-07
317,-0.0509041415750371,-0.0509041415750371,-0.0509041415750371,-0.0509041415750371,9.898898308841864e-07,9.898898322676808e-07,9.898898324812085e-07,9.898898310903465e-07
318,-0.0535826794978996,-0.0535826794978996,-0.0535826794978996,-0.0535826794978996,9.898237948979781e-07,9.898237965370726e-07,9.89823796629325e-07,9.89823795228106e-07
319,-0.056208337785213,-0.056208337785213,-0.056208337785213,-0.056208337785213,9.897725393179332e-07,9.89772541236972e-07,9.8977254117394e-07,9.897725397958233e-07
320,-0.0587785252292472,-0.0587785252292472,-0.0587785252292472,-0.0587785252292472,9.897368783618154e-07,9.897368805821767e-07,9.89736880327114e-07,9.897368790120396e-07
321,-0.0612907053652976,-0.0612907053652976,-0.0612907053652976,-0.0612907053652976,9.897172673064638e-07,9.897172698454804e-07,9.897172693594593e-07,9.897172681538176e-07
322,-0.0637423989748689,-0.0637423989748689,-0.0637423989748689,-0.0637423989748689,9.897138099270304e-07,9.89713812796851e-07,9.897138120394687e-07,9.897138109959013e-07
323,-0.0661311865323651,-0.0661311865323651,-0.0661311865323651,-0.0661311865323651,9.897262736506125e-07,9.897262768570555e-07,9.897262757872597e-07,9.897262749642628e-07
324,-0.0684547105928689,-0.0684547105928689,-0.0684547105928689,-0.0684547105928689,9.897541114921561e-07,9.89754115033559e-07,9.897541136106154e-07,9.897541130719524e-07
325,-0.0707106781186548,-0.0707106781186548,-0.0707106781186548,-0.0707106781186548,9.897964897758774e-07,9.897964936419895e-07,9.897964918265588e-07,9.89796491640446e-07
326,-0.0728968627421411,-0.0728968627421411,-0.0728968627421411,-0.0728968627421411,9.898523206011351e-07,9.898523247720723e-07,9.898523225274043e-07,9.898523227654962e-07
327,-0.0750111069630459,-0.0750111069630459,-0.0750111069630459,-0.0750111069630459,9.899202980076527e-07,9.899203024529536e-07,9.899202997461658e-07,9.899203004823054e-07
328,-0.0770513242775789,-0.0770513242775789,-0.0770513242775789,-0.0770513242775789,9.899989367750692e-07,9.899989414528896e-07,9.89998938256321e-07,9.899989395650952e-07
329,-0.079015501237569,-0.079015501237569,-0.079015501237569,-0.079015501237569,9.900866128261023e-07,9.90086617682571e-07,9.90086613975183e-07,9.900866159302593e-07
330,-0.0809016994374947,-0.0809016994374947,-0.0809016994374947,-0.0809016994374947,9.901816042282422e-07,9.90181609197033e-07,9.901816049658215e-07,9.901816076381156e-07
331,-0.0827080574274561,-0.0827080574274561,-0.0827080574274561,-0.0827080574274561,9.90282131849978e-07,9.902821368521063e-07,9.90282132093516e-07,9.902821355491789e-07
332,-0.0844327925502015,-0.0844327925502015,-0.0844327925502015,-0.0844327925502015,9.903863987904483e-07,9.90386403734347e-07,9.903863984556189e-07,9.90386402753907e-07
333,-0.0860742027003944,-0.0860742027003944,-0.0860742027003944,-0.0860742027003944,9.90492627792543e-07,9.904926325744296e-07,9.904926267948864e-07,9.904926319859166e-07
334,-0.0876306680043864,-0.0876306680043864,-0.0876306680043864,-0.0876306680043864,9.905990959425369e-07,9.905991004471e-07,9.905990941992867e-07,9.90599100321747e-07
335,-0.0891006524188368,-0.0891006524188368,-0.0891006524188368,-0.0891006524188368,9.907041660576257e-07,9.907041701590603e-07,9.907041634897448e-07,9.907041705685783e-07
336,-0.0904827052466019,-0.0904827052466019,-0.0904827052466019,-0.0904827052466019,9.908063142996292e-07,9.90806317863009e-07,9.908063108339598e-07,9.90806318878101e-07
337,-0.0917754625683981,-0.0917754625683981,-0.0917754625683981,-0.0917754625683981,9.909041536354463e-07,9.909041565184786e-07,9.90904149207016e-07,9.909041582072139e-07
338,-0.0929776485888251,-0.0929776485888251,-0.0929776485888251,-0.0929776485888251,9.90996452911408e-07,9.909964549665169e-07,9.909964474657777e-07,9.909964573925721e-07
339,-0.0940880768954225,-0.0940880768954225,-0.0940880768954225,-0.0940880768954225,9.91082151407385e-07,9.910821524841793e-07,9.910821449030616e-07,9.910821557049862e-07
340,-0.0951056516295153,-0.0951056516295153,-0.0951056516295153,-0.0951056516295153,9.911603688631032e-07,9.91160368811134e-07,9.911603612739108e-07,9.911603728759544e-07
341,-0.0960293685676943,-0.0960293685676943,-0.0960293685676943,-0.0960293685676943,9.912304110504777e-07,9.912304097223391e-07,9.912304023678722e-07,9.91230414670311e-07
342,-0.0968583161128631,-0.0968583161128631,-0.0968583161128631,-0.0968583161128631,9.912917710906825e-07,9.912917683453355e-07,9.912917613259309e-07,9.912917742035263e-07
343,-0.0975916761938747,-0.0975916761938747,-0.0975916761938747,-0.0975916761938747,9.913441267733533e-07,9.913441224797045e-07,9.91344115959512e-07,9.913441292612112e-07
344,-0.0982287250728689,-0.0982287250728689,-0.0982287250728689,-0.0982287250728689,9.913873342203903e-07,9.91387328260995e-07,9.913873224140493e-07,9.913873359631578e-07
345,-0.0987688340595137,-0.0987688340595137,-0.0987688340595137,-0.0987688340595137,9.914214182982432e-07,9.914214105731259e-07,9.914214055809136e-07,9.91421419175867e-07
346,-0.0992114701314478,-0.0992114701314478,-0.0992114701314478,-0.0992114701314478,9.914465602159407e-07,9.914465506464208e-07,9.914465466951142e-07,9.914465601108178e-07
347,-0.099556196460308,-0.099556196460308,-0.099556196460308,-0.099556196460308,9.914630827978742e-07,9.914630713303235e-07,9.914630686075719e-07,9.914630815973863e-07
348,-0.0998026728428271,-0.0998026728428271,-0.0998026728428271,-0.0998026728428271,9.914714339049513e-07,9.9147142051441e-07,9.91471419205855e-07,9.914714315042211e-07
349,-0.0999506560365731,-0.0999506560365731,-0.0999506560365731,-0.0999506560365731,9.914721685305418e-07,9.914721532240585e-07,9.914721535094925e-07,9.9147216483519e-07
350,-0.1,-0.1,-0.1,-0.1,9.914659300345264e-07,9.914659128541914e-07,9.914659149035298e-07,9.914659249635976e-07
351,-0.0999506560365731,-0.0999506560365731,-0.0999506560365731,-0.0999506560365731,9.914534310131308e-07,9.914534120386073e-07,9.914534160076453e-07,9.914534245018678e-07
352,-0.0998026728428271,-0.0998026728428271,-0.0998026728428271,-0.0998026728428271,9.91435434230085e-07,9.914354135806724e-07,9.91435419606776e-07,9.914354262327824e-07
353,-0.099556196460308,-0.099556196460308,-0.099556196460308,-0.099556196460308,9.914127340325332e-07,9.914127118685025e-07,9.914127200662809e-07,9.914127245250882e-07
354,-0.0992114701314478,-0.0992114701314478,-0.0992114701314478,-0.0992114701314478,9.913861386055196e-07,9.913861151288325e-07,9.91386125585887e-07,9.913861275879263e-07
355,-0.0987688340595138,-0.0987688340595138,-0.0987688340595138,-0.0987688340595138,9.913564533846976e-07,9.913564288388081e-07,9.913564416117007e-07,9.913564408831084e-07
356,-0.0982287250728689,-0.0982287250728689,-0.0982287250728689,-0.0982287250728689,9.91324465900946e-07,9.91324440569858e-07,9.913244556803259e-07,9.913244519695046e-07
357,-0.0975916761938747,-0.0975916761938747,-0.0975916761938747,-0.0975916761938747,9.912909322414254e-07,9.912909064477098e-07,9.912909238793432e-07,9.91290916963567e-07
358,-0.0968583161128631,-0.0968583161128631,-0.0968583161128631,-0.0968583161128631,9.912565653202687e-07,9.912565394222437e-07,9.912565591176086e-07,9.912565488096033e-07
359,-0.0960293685676943,-0.0960293685676943,-0.0960293685676943,-0.0960293685676943,9.91222025022912e-07,9.912219994107532e-07,9.91222021269198e-07,9.912220074235078e-07
360,-0.0951056516295153,-0.0951056516295153,-0.0951056516295153,-0.0951056516295153,9.911879103067465e-07,9.911878853977234e-07,9.911879092738403e-07,9.91187891792828e-07
361,-0.0940880768954225,-0.0940880768954225,-0.0940880768954225,-0.0940880768954225,9.91154753237792e-07,9.911547294705098e-07,9.911547551734559e-07,9.911547340127936e-07
362,-0.0929776485888251,-0.0929776485888251,-0.0929776485888251,-0.0929776485888251,9.911230149351347e-07,9.911229927629451e-07,9.911230200566159e-07,9.91122995230058e-07
363,-0.0917754625683981,-0.0917754625683981,-0.0917754625683981,-0.0917754625683981,9.910930833421845e-07,9.910930632257807e-07,9.910930918299578e-07,9.910930634132916e-07
364,-0.090482705246602,-0.090482705246602,-0.090482705246602,-0.090482705246602,9.910652726986022e-07,9.910652550979286e-07,9.910652846904271e-07,9.910652528243823e-07
365,-0.0891006524188368,-0.0891006524188368,-0.0891006524188368,-0.0891006524188368,9.910398245907379e-07,9.910398099563612e-07,9.910398401761899e-07,9.910398050682279e-07
366,-0.0876306680043864,-0.0876306680043864,-0.0876306680043864,-0.0876306680043864,9.910169103933465e-07,9.910168991573998e-07,9.910169296089905e-07,9.910168915337793e-07
367,-0.0860742027003943,-0.0860742027003943,-0.0860742027003943,-0.0860742027003943,9.909966349444813e-07,9.909966275114216e-07,9.909966577698292e-07,9.909966170683607e-07
368,-0.0844327925502015,-0.0844327925502015,-0.0844327925502015,-0.0844327925502015,9.909790412359177e-07,9.909790379732305e-07,9.909790675903482e-07,9.90979024667564e-07
369,-0.0827080574274562,-0.0827080574274562,-0.0827080574274562,-0.0827080574274562,9.909641159484138e-07,9.909641171775393e-07,9.909641456891653e-07,9.909641010100704e-07
370,-0.0809016994374947,-0.0809016994374947,-0.0809016994374947,-0.0809016994374947,9.909517956134332e-07,9.90951801601097e-07,9.909518285348321e-07,9.909517826190675e-07
371,-0.079015501237569,-0.079015501237569,-0.079015501237569,-0.079015501237569,9.909419732165647e-07,9.90941984166776e-07,9.909420090505513e-07,9.90941962465436e-07
372,-0.0770513242775789,-0.0770513242775789,-0.0770513242775789,-0.0770513242775789,9.909345050644135e-07,9.909345211113654e-07,9.909345434825025e-07,9.90934496834619e-07
373,-0.075011106963046,-0.075011106963046,-0.075011106963046,-0.075011106963046,9.909292177210577e-07,9.909292389231506e-07,9.909292583377228e-07,9.909292122631274e-07
374,-0.0728968627421412,-0.0728968627421412,-0.0728968627421412,-0.0728968627421412,9.909259148808616e-07,9.909259412161064e-07,9.909259572584303e-07,9.909259124116446e-07
375,-0.0707106781186548,-0.0707106781186548,-0.0707106781186548,-0.0707106781186548,9.909243840138878e-07,9.909244153768624e-07,9.909244276688747e-07,9.909243847108312e-07
376,-0.0684547105928688,-0.0684547105928688,-0.0684547105928688,-0.0684547105928688,9.909244026770382e-07,9.909244388776223e-07,9.909244470879008e-07,9.9092440667308e-07
377,-0.0661311865323651,-0.0661311865323651,-0.0661311865323651,-0.0661311865323651,9.90925744373873e-07,9.909257851378876e-07,9.90925788990079e-07,9.909257517530966e-07
378,-0.0637423989748689,-0.0637423989748689,-0.0637423989748689,-0.0637423989748689,9.90928183887261e-07,9.909282288591572e-07,9.909282281395235e-07,9.909281946814762e-07
379,-0.0612907053652976,-0.0612907053652976,-0.0612907053652976,-0.0612907053652976,9.909315020168213e-07,9.909315507644798e-07,9.909315453283463e-07,9.909315162032495e-07
380,-0.0587785252292473,-0.0587785252292473,-0.0587785252292473,-0.0587785252292473,9.909354896777223e-07,9.909355416994057e-07,9.909355314762129e-07,9.909355071778895e-07
381,-0.0562083377852131,-0.0562083377852131,-0.0562083377852131,-0.0562083377852131,9.909399513377354e-07,9.909400060711512e-07,9.909399910679225e-07,9.909399720177371e-07
382,-0.0535826794978997,-0.0535826794978997,-0.0535826794978997,-0.0535826794978997,9.90944707772824e-07,9.909447646062351e-07,9.909447449092073e-07,9.909447314450106e-07
383,-0.0509041415750372,-0.0509041415750372,-0.0509041415750372,-0.0509041415750372,9.909495981629366e-07,9.909496564481417e-07,9.909496322224056e-07,9.909496245891228e-07
384,-0.0481753674101714,-0.0481753674101714,-0.0481753674101714,-0.0481753674101714,9.909544815399717e-07,9.909545406069814e-07,9.909545120939684e-07,9.909545104361655e-07
385,-0.0453990499739546,-0.0453990499739546,-0.0453990499739546,-0.0453990499739546,9.90959237625284e-07,9.909592967983693e-07,9.909592643110959e-07,9.909592686679464e-07
386,-0.0425779291565072,-0.0425779291565072,-0.0425779291565072,-0.0425779291565072,9.90963767098001e-07,9.90963825712828e-07,9.909637896288465e-07,9.909637999317743e-07
387,-0.039714789063478,-0.039714789063478,-0.039714789063478,-0.039714789063478,9.909679913500564e-07,9.909680487714434e-07,9.90968009523515e-07,9.909680255968523e-07
388,-0.0368124552684678,-0.0368124552684678,-0.0368124552684678,-0.0368124552684678,9.909718517845913e-07,9.909719074244916e-07,9.909718654890576e-07,9.90971887053913e-07
389,-0.0338737920245291,-0.0338737920245291,-0.0338737920245291,-0.0338737920245291,9.909753087216985e-07,9.909753620568475e-07,9.90975317940441e-07,9.909753446219742e-07
390,-0.0309016994374947,-0.0309016994374947,-0.0309016994374947,-0.0309016994374947,9.909783399800616e-07,9.909783905687817e-07,9.909783447926074e-07,9.909783761307743e-07
391,-0.0278991106039229,-0.0278991106039229,-0.0278991106039229,-0.0278991106039229,9.909809391964095e-07,9.909809866939633e-07,9.909809397769244e-07,9.909809752407077e-07
392,-0.0248689887164855,-0.0248689887164855,-0.0248689887164855,-0.0248689887164855,9.909831139528083e-07,9.909831581247256e-07,9.90983110565273e-07,9.909831495702864e-07
393,-0.0218143241396541,-0.0218143241396541,-0.0218143241396541,-0.0218143241396541,9.9098488377656e-07,9.909849245093284e-07,9.909848767665562e-07,9.909849186958226e-07
394,-0.0187381314585724,-0.0187381314585724,-0.0187381314585724,-0.0187381314585724,9.909862780707655e-07,9.909863153793026e-07,9.909862678538007e-07,9.909863120813832e-07
395,-0.015643446504023,-0.015643446504023,-0.015643446504023,-0.015643446504023,9.90987334033137e-07,9.909873680644893e-07,9.909873210795012e-07,9.909873669965614e-07
396,-0.0125333233564304,-0.0125333233564304,-0.0125333233564304,-0.0125333233564304,9.909880946139487e-07,9.909881256467085e-07,9.909880794302144e-07,9.909881264729439e-07
397,-0.0094108313318514,-0.0094108313318514,-0.0094108313318514,-0.0094108313318514,9.90988606558266e-07,9.909886349972676e-07,9.909885896656331e-07,9.909886373444113e-07
398,-0.0062790519529313,-0.0062790519529313,-0.0062790519529313,-0.0062790519529313,9.909889185711183e-07,9.90988944937061e-07,9.909889004809308e-07,9.909889484099377e-07
399,-0.0031410759078128,-0.0031410759078128,-0.0031410759078128,-0.0031410759078128,9.909890796365472e-07,9.90989104550296e-07,9.90989060823414e-07,9.909891087498463e-07
400,-4.8985871965894125e-17,-4.8985871965894125e-17,-4.8985871965894125e-17,-4.8985871965894125e-17,9.909891375167695e-07,9.909891616782086e-07,9.909891183898412e-07,9.909891662217829e-07
401,0.0031410759078129,0.0031410759078129,0.0031410759078129,0.0031410759078129,9.909891374491847e-07,9.909891616106405e-07,9.909891183222558e-07,9.909891661542009e-07
402,0.0062790519529314,0.0062790519529314,0.0062790519529314,0.0062790519529314,9.909891210531218e-07,9.909891459875227e-07,9.909891021143232e-07,9.90989150249291e-07
403,0.0094108313318515,0.0094108313318515,0.0094108313318515,0.0094108313318515,9.90989125451926e-07,9.909891519160363e-07,9.90989106733889e-07,9.909891557010526e-07
404,0.0125333233564304,0.0125333233564304,0.0125333233564304,0.0125333233564304,9.909891826102335e-07,9.909892113034731e-07,9.90989163961675e-07,9.909892145284276e-07
405,0.0156434465040231,0.0156434465040231,0.0156434465040231,0.0156434465040231,9.909893188814044e-07,9.90989350400947e-07,9.90989299941162e-07,9.909893531185757e-07
406,0.0187381314585724,0.0187381314585724,0.0187381314585724,0.0187381314585724,9.909895547554872e-07,9.909895895485156e-07,9.909895349300876e-07,9.909895919707798e-07
407,0.0218143241396542,0.0218143241396542,0.0218143241396542,0.0218143241396542,9.909899047920215e-07,9.9098994310619e-07,9.909898832378775e-07,9.909899456254017e-07
408,0.0248689887164854,0.0248689887164854,0.0248689887164854,0.0248689887164854,9.909903777248072e-07,9.90990419558145e-07,9.909903533361566e-07,9.909904227651612e-07
409,0.0278991106039228,0.0278991106039228,0.0278991106039228,0.0278991106039228,9.909909767149998e-07,9.909910217666337e-07,9.909909481186586e-07,9.90991026465216e-07
410,0.0309016994374948,0.0309016994374948,0.0309016994374948,0.0309016994374948,9.909916997338583e-07,9.90991747357082e-07,9.909916652918072e-07,9.909917545735278e-07
411,0.0338737920245292,0.0338737920245292,0.0338737920245292,0.0338737920245292,9.909925400518388e-07,9.909925892111626e-07,9.90992497872568e-07,9.909926001983217e-07
412,0.0368124552684678,0.0368124552684678,0.0368124552684678,0.0368124552684678,9.90993486810951e-07,9.909935360448584e-07,9.909934347703602e-07,9.909935522797115e-07
413,0.0397147890634781,0.0397147890634781,0.0397147890634781,0.0397147890634781,9.909945256589777e-07,9.909945730501541e-07,9.9099446143147e-07,9.909945962241954e-07
414,0.0425779291565073,0.0425779291565073,0.0425779291565073,0.0425779291565073,9.909956394225348e-07,9.909956825773492e-07,9.909955605227408e-07,9.909957145791226e-07
415,0.0453990499739547,0.0453990499739547,0.0453990499739547,0.0453990499739547,9.909968087980196e-07,9.90996844837002e-07,9.909967126333668e-07,9.909968877262663e-07
416,0.0481753674101715,0.0481753674101715,0.0481753674101715,0.0481753674101715,9.90998013039432e-07,9.90998038600399e-07,9.909978969735095e-07,9.909980945735622e-07
417,0.0509041415750369,0.0509041415750369,0.0509041415750369,0.0509041415750369,9.909992306335583e-07,9.909992418889128e-07,9.909990920599452e-07,9.909993132355557e-07
418,0.0535826794978995,0.0535826794978995,0.0535826794978995,0.0535826794978995,9.91000439931355e-07,9.9100043262088e-07,9.910002763572688e-07,9.910005216714002e-07
419,0.056208337785213,0.056208337785213,0.056208337785213,0.056208337785213,9.910016197413145e-07,9.910015892215564e-07,9.910014288801083e-07,9.910016982861973e-07
420,0.0587785252292472,0.0587785252292472,0.0587785252292472,0.0587785252292472,9.910027498577674e-07,9.91002691168781e-07,9.910025297289787e-07,9.91002822468556e-07
421,0.0612907053652976,0.0612907053652976,0.0612907053652976,0.0612907053652976,9.910038115246218e-07,9.910037194745226e-07,9.910035605599056e-07,9.910038750648176e-07
422,0.0637423989748689,0.0637423989748689,0.0637423989748689,0.0637423989748689,9.910047878319331e-07,9.910046570992832e-07,9.910045049849294e-07,9.910048387871802e-07
423,0.0661311865323651,0.0661311865323651,0.0661311865323651,0.0661311865323651,9.910056640267492e-07,9.910054892803686e-07,9.91005348884534e-07,9.910056985370302e-07
424,0.0684547105928687,0.0684547105928687,0.0684547105928687,0.0684547105928687,9.910064277576511e-07,9.91006203792972e-07,9.910060806512162e-07,9.910064416626685e-07
425,0.0707106781186546,0.0707106781186546,0.0707106781186546,0.0707106781186546,9.910070692317629e-07,9.91006791122309e-07,9.910066913425958e-07,9.91007058129975e-07
426,0.072896862742141,0.072896862742141,0.072896862742141,0.072896862742141,9.91007581310597e-07,9.91007244572685e-07,9.910071747703158e-07,9.910075406320862e-07
427,0.0750111069630459,0.0750111069630459,0.0750111069630459,0.0750111069630459,9.91007959524227e-07,9.91007560292386e-07,9.910075275039528e-07,9.910078846172491e-07
428,0.0770513242775789,0.0770513242775789,0.0770513242775789,0.0770513242775789,9.910082020250093e-07,9.910077372351604e-07,9.910077488111315e-07,9.910080882557468e-07
429,0.079015501237569,0.079015501237569,0.079015501237569,0.079015501237569,9.910083094900989e-07,9.910077770669254e-07,9.910078405429907e-07,9.910081523547264e-07
430,0.0809016994374947,0.0809016994374947,0.0809016994374947,0.0809016994374947,9.910082849634065e-07,9.9100768400797e-07,9.910078069557226e-07,9.910080802112443e-07
431,0.0827080574274561,0.0827080574274561,0.0827080574274561,0.0827080574274561,9.910081336647706e-07,9.91007464637871e-07,9.910076544960802e-07,9.91007877430815e-07
432,0.0844327925502014,0.0844327925502014,0.0844327925502014,0.0844327925502014,9.910078627579122e-07,9.910071276544376e-07,9.910073915426156e-07,9.910075517027336e-07
433,0.0860742027003943,0.0860742027003943,0.0860742027003943,0.0860742027003943,9.910074810979393e-07,9.910066836070466e-07,9.910070281237922e-07,9.910071125524278e-07
434,0.0876306680043863,0.0876306680043863,0.0876306680043863,0.0876306680043863,9.910069989591868e-07,9.91006144605038e-07,9.91006575614073e-07,9.910065710713658e-07
435,0.0891006524188367,0.0891006524188367,0.0891006524188367,0.0891006524188367,9.91006427755576e-07,9.910055240131996e-07,9.910060464208121e-07,9.910059396362498e-07
436,0.0904827052466019,0.0904827052466019,0.0904827052466019,0.0904827052466019,9.910057797567697e-07,9.910048361376815e-07,9.910054536656693e-07,9.910052316205602e-07
437,0.0917754625683981,0.0917754625683981,0.0917754625683981,0.0917754625683981,9.910050678111035e-07,9.910040959134554e-07,9.91004810872408e-07,9.910044611091162e-07
438,0.0929776485888251,0.0929776485888251,0.0929776485888251,0.0929776485888251,9.910043050775842e-07,9.91003318595929e-07,9.910041316639506e-07,9.910036426177883e-07
439,0.0940880768954225,0.0940880768954225,0.0940880768954225,0.0940880768954225,9.910035047789346e-07,9.910025194691125e-07,9.910034294817034e-07,9.91002790830241e-07
440,0.0951056516295153,0.0951056516295153,0.0951056516295153,0.0951056516295153,9.910026799671208e-07,9.910017135624226e-07,9.910027173193233e-07,9.91001920343069e-07
441,0.0960293685676942,0.0960293685676942,0.0960293685676942,0.0960293685676942,9.910018433199471e-07,9.910009153953816e-07,9.910020074905925e-07,9.910010454380683e-07
442,0.0968583161128631,0.0968583161128631,0.0968583161128631,0.0968583161128631,9.910010069593304e-07,9.91000138741825e-07,9.910013114228707e-07,9.91000179872319e-07
443,0.0975916761938747,0.0975916761938747,0.0975916761938747,0.0975916761938747,9.910001822965906e-07,9.909993964198633e-07,9.91000639482492e-07,9.909993366918079e-07
444,0.0982287250728689,0.0982287250728689,0.0982287250728689,0.0982287250728689,9.909993799119634e-07,9.909987001161221e-07,9.910000008402204e-07,9.909985280760958e-07
445,0.0987688340595137,0.0987688340595137,0.0987688340595137,0.0987688340595137,9.909986094495304e-07,9.909980602265644e-07,9.909994033588408e-07,9.909977651957861e-07
446,0.0992114701314478,0.0992114701314478,0.0992114701314478,0.0992114701314478,9.909978795567301e-07,9.909974857446123e-07,9.909988535328977e-07,9.90997058112572e-07
447,0.099556196460308,0.099556196460308,0.099556196460308,0.099556196460308,9.909971978281937e-07,9.909969841575572e-07,9.909983564409737e-07,9.909964156822596e-07
448,0.0998026728428271,0.0998026728428271,0.0998026728428271,0.0998026728428271,9.909965707940626e-07,9.909965613930881e-07,9.909979157513179e-07,9.909958455018875e-07
449,0.0999506560365731,0.0999506560365731,0.0999506560365731,0.0999506560365731,9.909960039102016e-07,9.909962217746392e-07,9.90997533738579e-07,9.909953538590554e-07
450,0.1,0.1,0.1,0.1,9.909955015804384e-07,9.909959680173221e-07,9.909972113420923e-07,9.909949457148417e-07
451,0.0999506560365731,0.0999506560365731,0.0999506560365731,0.0999506560365731,9.909950671861534e-07,9.909958012409832e-07,9.909969482410028e-07,9.909946246963597e-07
452,0.0998026728428271,0.0998026728428271,0.0998026728428271,0.0998026728428271,9.909947031271895e-07,9.90995721005789e-07,9.9099674295008e-07,9.909943931043638e-07
453,0.099556196460308,0.099556196460308,0.099556196460308,0.099556196460308,9.909944108811431e-07,9.909957253783615e-07,9.909965929427685e-07,9.909942519436425e-07
454,0.0992114701314477,0.0992114701314477,0.0992114701314477,0.0992114701314477,9.909941910496693e-07,9.909958109982118e-07,9.909964947695223e-07,9.909942009463694e-07
455,0.0987688340595137,0.0987688340595137,0.0987688340595137,0.0987688340595137,9.90994043435953e-07,9.909959731891194e-07,9.909964442145131e-07,9.909942386331296e-07
456,0.0982287250728688,0.0982287250728688,0.0982287250728688,0.0982287250728688,9.909939670904082e-07,9.909962060531711e-07,9.909964364266885e-07,9.909943623501096e-07
457,0.0975916761938747,0.0975916761938747,0.0975916761938747,0.0975916761938747,9.90993960385846e-07,9.909965026085904e-07,9.909964660848484e-07,9.909945683441759e-07
458,0.0968583161128631,0.0968583161128631,0.0968583161128631,0.0968583161128631,9.90994021067081e-07,9.909968549163344e-07,9.909965275400889e-07,9.909948518218424e-07
459,0.0960293685676943,0.0960293685676943,0.0960293685676943,0.0960293685676943,9.909941463086877e-07,9.90997254228383e-07,9.909966149673505e-07,9.909952070262612e-07
460,0.0951056516295153,0.0951056516295153,0.0951056516295153,0.0951056516295153,9.909943327665338e-07,9.909976911425483e-07,9.909967225095696e-07,9.909956273182811e-07
461,0.0940880768954225,0.0940880768954225,0.0940880768954225,0.0940880768954225,9.909945766203345e-07,9.909981557595638e-07,9.909968444094565e-07,9.90996105259109e-07
462,0.0929776485888251,0.0929776485888251,0.0929776485888251,0.0929776485888251,9.909948736177524e-07,9.909986378512786e-07,9.909969751368855e-07,9.909966327047924e-07
463,0.0917754625683981,0.0917754625683981,0.0917754625683981,0.0917754625683981,9.909952191042546e-07,9.909991270220206e-07,9.909971094938476e-07,9.909972008967575e-07
464,0.0904827052466019,0.0904827052466019,0.0904827052466019,0.0904827052466019,9.909956080655594e-07,9.909996128873576e-07,9.909972427210195e-07,9.909978005742079e-07
465,0.0891006524188367,0.0891006524188367,0.0891006524188367,0.0891006524188367,9.90996035147581e-07,9.910000852324332e-07,9.909973705687713e-07,9.90998422072849e-07
466,0.0876306680043863,0.0876306680043863,0.0876306680043863,0.0876306680043863,9.909964946968584e-07,9.91000534189498e-07,9.909974893728745e-07,9.909990554513015e-07
467,0.0860742027003943,0.0860742027003943,0.0860742027003943,0.0860742027003943,9.90996980784218e-07,9.91000950394179e-07,9.909975960959302e-07,9.909996906068632e-07
468,0.0844327925502015,0.0844327925502015,0.0844327925502015,0.0844327925502015,9.909974872426783e-07,9.91001325147649e-07,9.909976883632268e-07,9.910003174095575e-07
469,0.0827080574274562,0.0827080574274562,0.0827080574274562,0.0827080574274562,9.909980077022003e-07,9.910016505637866e-07,9.909977644744395e-07,9.910009258352723e-07
470,0.0809016994374946,0.0809016994374946,0.0809016994374946,0.0809016994374946,9.909985356353783e-07,9.910019197114763e-07,9.909978234037844e-07,9.910015061097175e-07
471,0.0790155012375689,0.0790155012375689,0.0790155012375689,0.0790155012375689,9.909990644081228e-07,9.910021267425453e-07,9.909978647822049e-07,9.910020488548082e-07
472,0.0770513242775788,0.0770513242775788,0.0770513242775788,0.0770513242775788,9.90999587337556e-07,9.910022670039256e-07,9.909978888634814e-07,9.910025452371723e-07
473,0.0750111069630459,0.0750111069630459,0.0750111069630459,0.0750111069630459,9.910000977645867e-07,9.910023371383158e-07,9.909978964821956e-07,9.910029871233899e-07
474,0.0728968627421411,0.0728968627421411,0.0728968627421411,0.0728968627421411,9.91000589124899e-07,9.910023351541547e-07,9.909978889883145e-07,9.910033672231406e-07
475,0.0707106781186547,0.0707106781186547,0.0707106781186547,0.0707106781186547,9.910010550434014e-07,9.910022604875815e-07,9.909978681850282e-07,9.910036792423734e-07
476,0.0684547105928688,0.0684547105928688,0.0684547105928688,0.0684547105928688,9.910014894239712e-07,9.910021140264304e-07,9.909978362441832e-07,9.910039180159083e-07
477,0.0661311865323652,0.0661311865323652,0.0661311865323652,0.0661311865323652,9.910018865595214e-07,9.91001898120183e-07,9.909977956271534e-07,9.910040796418631e-07
478,0.0637423989748689,0.0637423989748689,0.0637423989748689,0.0637423989748689,9.910022412361832e-07,9.910016165494102e-07,9.909977489888851e-07,9.91004161589669e-07
479,0.0612907053652975,0.0612907053652975,0.0612907053652975,0.0612907053652975,9.910025488489003e-07,9.910012744725685e-07,9.909976990864676e-07,9.910041627969665e-07
480,0.0587785252292473,0.0587785252292473,0.0587785252292473,0.0587785252292473,9.910028055179937e-07,9.910008783412822e-07,9.909976486869501e-07,9.910040837436424e-07
481,0.0562083377852131,0.0562083377852131,0.0562083377852131,0.0562083377852131,9.910030081986123e-07,9.910004357785619e-07,9.909976004715035e-07,9.910039264938515e-07
482,0.0535826794978997,0.0535826794978997,0.0535826794978997,0.0535826794978997,9.910031547913902e-07,9.909999554318873e-07,9.909975569502572e-07,9.91003694714117e-07
483,0.0509041415750372,0.0509041415750372,0.0509041415750372,0.0509041415750372,9.910032442349615e-07,9.90999446786422e-07,9.909975203744534e-07,9.910033936482826e-07
484,0.0481753674101716,0.0481753674101716,0.0481753674101716,0.0481753674101716,9.910032765930962e-07,9.90998919956796e-07,9.909974926650794e-07,9.910030300632e-07
485,0.0453990499739548,0.0453990499739548,0.0453990499739548,0.0453990499739548,9.910032531157665e-07,9.909983854433844e-07,9.909974753435455e-07,9.910026121460027e-07
486,0.0425779291565074,0.0425779291565074,0.0425779291565074,0.0425779291565074,9.910031762836103e-07,9.909978538700907e-07,9.909974694800953e-07,9.910021493650456e-07
487,0.0397147890634782,0.0397147890634782,0.0397147890634782,0.0397147890634782,9.910030498205308e-07,9.909973356966775e-07,9.909974756505293e-07,9.910016522823576e-07
488,0.0368124552684678,0.0368124552684678,0.0368124552684678,0.0368124552684678,9.91002878680709e-07,9.909968409208998e-07,9.909974939128781e-07,9.910011323279966e-07
489,0.0338737920245291,0.0338737920245291,0.0338737920245291,0.0338737920245291,9.910026689980569e-07,9.909963787678914e-07,9.909975237967157e-07,9.910006015289933e-07
490,0.0309016994374948,0.0309016994374948,0.0309016994374948,0.0309016994374948,9.910024279968194e-07,9.909959573752394e-07,9.909975643075737e-07,9.910000721970933e-07
491,0.027899110603923,0.027899110603923,0.027899110603923,0.027899110603923,9.910021638685163e-07,9.909955834886672e-07,9.909976139543364e-07,9.9099955658647e-07
492,0.0248689887164855,0.0248689887164855,0.0248689887164855,0.0248689887164855,9.910018856021785e-07,9.90995262164859e-07,9.909976707879926e-07,9.909990665149845e-07
493,0.0218143241396543,0.0218143241396543,0.0218143241396543,0.0218143241396543,9.91001602779502e-07,9.909949965020565e-07,9.909977324633363e-07,9.909986129675064e-07
494,0.0187381314585725,0.0187381314585725,0.0187381314585725,0.0187381314585725,9.910013253264096e-07,9.909947873982547e-07,9.909977963135428e-07,9.909982056800479e-07
495,0.0156434465040232,0.0156434465040232,0.0156434465040232,0.0156434465040232,9.910010632302613e-07,9.90994633353393e-07,9.909978594435383e-07,9.90997852721185e-07
496,0.0125333233564304,0.0125333233564304,0.0125333233564304,0.0125333233564304,9.910008262210722e-07,9.9099453031978e-07,9.909979188354796e-07,9.90997560076365e-07
497,0.0094108313318514,0.0094108313318514,0.0094108313318514,0.0094108313318514,9.910006234266477e-07,9.909944716147935e-07,9.909979714693116e-07,9.909973312518543e-07
498,0.0062790519529313,0.0062790519529313,0.0062790519529313,0.0062790519529313,9.910004630038464e-07,9.909944479002944e-07,9.9099801445187e-07,9.909971669069464e-07
499,0.0031410759078128,0.0031410759078128,0.0031410759078128,0.0031410759078128,9.9100035175571e-07,9.909944472384832e-07,9.909980451536852e-07,9.909970645297919e-07
500,6.123233995736766e-17,6.123233995736766e-17,6.123233995736766e-17,6.123233995736766e-17,9.910002947442314e-07,9.909944552315233e-07,9.909980613509768e-07,9.909970181713125e-07
501,-0.0031410759078127,-0.0031410759078127,-0.0031410759078127,-0.0031410759078127,9.91000294907465e-07,9.909944552485513e-07,9.90998061367667e-07,9.90997018249403e-07
502,-0.0062790519529312,-0.0062790519529312,-0.0062790519529312,-0.0062790519529312,9.910003526935412e-07,9.909944287447764e-07,9.909980442147303e-07,9.90997051438084e-07
503,-0.0094108313318513,-0.0094108313318513,-0.0094108313318513,-0.0094108313318513,9.910004657234324e-07,9.909943556737892e-07,9.909980097223501e-07,9.909971006539598e-07
504,-0.0125333233564302,-0.0125333233564302,-0.0125333233564302,-0.0125333233564302,9.910006284948414e-07,9.90994214991851e-07,9.909979586600626e-07,9.909971451510732e-07
505,-0.0156434465040231,-0.0156434465040231,-0.0156434465040231,-0.0156434465040231,9.910008321418024e-07,9.909939852523057e-07,9.909978928418337e-07,9.909971607355465e-07
506,-0.0187381314585724,-0.0187381314585724,-0.0187381314585724,-0.0187381314585724,9.910010642609202e-07,9.909936452819153e-07,9.90997815209308e-07,9.909971201056757e-07
507,-0.0218143241396542,-0.0218143241396542,-0.0218143241396542,-0.0218143241396542,9.910013088190809e-07,9.909931749323086e-07,9.909977298907805e-07,9.909969933249232e-07
508,-0.0248689887164854,-0.0248689887164854,-0.0248689887164854,-0.0248689887164854,9.910015461550378e-07,9.909925558951325e-07,9.909976422319293e-07,9.909967484306715e-07
509,-0.0278991106039228,-0.0278991106039228,-0.0278991106039228,-0.0278991106039228,9.91001753083082e-07,9.909917725634797e-07,9.909975587915548e-07,9.909963521752573e-07
510,-0.0309016994374948,-0.0309016994374948,-0.0309016994374948,-0.0309016994374948,9.910019031127025e-07,9.909908129265114e-07,9.9099748730324e-07,9.909957708994438e-07
511,-0.033873792024529,-0.033873792024529,-0.033873792024529,-0.033873792024529,9.910019667864358e-07,9.909896694717076e-07,9.909974365946226e-07,9.909949715248523e-07
512,-0.0368124552684678,-0.0368124552684678,-0.0368124552684678,-0.0368124552684678,9.910019121484811e-07,9.909883400793672e-07,9.909974164693844e-07,9.909939226605206e-07
513,-0.0397147890634779,-0.0397147890634779,-0.0397147890634779,-0.0397147890634779,9.910017053375791e-07,9.909868288754223e-07,9.909974375415124e-07,9.9099259579821e-07
514,-0.0425779291565073,-0.0425779291565073,-0.0425779291565073,-0.0425779291565073,9.910013113128987e-07,9.909851470251572e-07,9.909975110306525e-07,9.909909665851926e-07
515,-0.0453990499739545,-0.0453990499739545,-0.0453990499739545,-0.0453990499739545,9.910006947008828e-07,9.909833134316785e-07,9.909976485110038e-07,9.909890161416905e-07
516,-0.0481753674101715,-0.0481753674101715,-0.0481753674101715,-0.0481753674101715,9.909998207617519e-07,9.90981355316614e-07,9.909978616217335e-07,9.909867324005793e-07
517,-0.0509041415750369,-0.0509041415750369,-0.0509041415750369,-0.0509041415750369,9.909986564622398e-07,9.909793086521237e-07,9.909981617398089e-07,9.90984111435026e-07
518,-0.0535826794978996,-0.0535826794978996,-0.0535826794978996,-0.0535826794978996,9.90997171635872e-07,9.909772184125733e-07,9.909985596160925e-07,9.909811587351822e-07
519,-0.0562083377852131,-0.0562083377852131,-0.0562083377852131,-0.0562083377852131,9.909953402179881e-07,9.909751386254599e-07,9.909990649867027e-07,9.909778904022572e-07
520,-0.0587785252292472,-0.0587785252292472,-0.0587785252292472,-0.0587785252292472,9.909931415253497e-07,9.909731321899212e-07,9.909996861594656e-07,9.909743342128223e-07
521,-0.0612907053652977,-0.0612907053652977,-0.0612907053652977,-0.0612907053652977,9.90990561563967e-07,9.909712704516902e-07,9.910004295940643e-07,9.909705305225147e-07
522,-0.0637423989748689,-0.0637423989748689,-0.0637423989748689,-0.0637423989748689,9.90987594316577e-07,9.909696324985391e-07,9.910012994669092e-07,9.909665329492392e-07
523,-0.0661311865323652,-0.0661311865323652,-0.0661311865323652,-0.0661311865323652,9.90984242995987e-07,9.90968304182777e-07,9.910022972506475e-07,9.909624088144975e-07
524,-0.0684547105928687,-0.0684547105928687,-0.0684547105928687,-0.0684547105928687,9.909805212200218e-07,9.909673768550759e-07,9.910034213112452e-07,9.909582392952718e-07
525,-0.0707106781186547,-0.0707106781186547,-0.0707106781186547,-0.0707106781186547,9.909764540634655e-07,9.909669458016908e-07,9.910046665278105e-07,9.909541192434295e-07
526,-0.0728968627421412,-0.0728968627421412,-0.0728968627421412,-0.0728968627421412,9.909720789615794e-07,9.909671084046734e-07,9.910060239612992e-07,9.909501566540426e-07
527,-0.0750111069630459,-0.0750111069630459,-0.0750111069630459,-0.0750111069630459,9.909674464145534e-07,9.909679620272412e-07,9.910074805735147e-07,9.909464717445225e-07
528,-0.077051324277579,-0.077051324277579,-0.077051324277579,-0.077051324277579,9.909626204604292e-07,9.909696016523048e-07,9.910090190154714e-07,9.909431956305612e-07
529,-0.079015501237569,-0.079015501237569,-0.079015501237569,-0.079015501237569,9.90957678876692e-07,9.909721173013983e-07,9.91010617494788e-07,9.909404685836846e-07
530,-0.0809016994374948,-0.0809016994374948,-0.0809016994374948,-0.0809016994374948,9.909527130795493e-07,9.909755912761084e-07,9.910122497373716e-07,9.90938437870197e-07
531,-0.0827080574274561,-0.0827080574274561,-0.0827080574274561,-0.0827080574274561,9.909478276815766e-07,9.909800952601814e-07,9.910138850452976e-07,9.909372551689783e-07
532,-0.0844327925502015,-0.0844327925502015,-0.0844327925502015,-0.0844327925502015,9.909431396920596e-07,9.909856873475886e-07,9.910154884703345e-07,9.909370735950904e-07
533,-0.0860742027003943,-0.0860742027003943,-0.0860742027003943,-0.0860742027003943,9.909387773411456e-07,9.909924090599555e-07,9.91017021111263e-07,9.909380443581806e-07
534,-0.0876306680043863,-0.0876306680043863,-0.0876306680043863,-0.0876306680043863,9.909348785006551e-07,9.910002824083858e-07,9.910184405258614e-07,9.909403130812503e-07
535,-0.0891006524188368,-0.0891006524188368,-0.0891006524188368,-0.0891006524188368,9.90931588717534e-07,9.91009307095337e-07,9.910197012806435e-07,9.909440158522975e-07
536,-0.0904827052466019,-0.0904827052466019,-0.0904827052466019,-0.0904827052466019,9.90929058849796e-07,9.910194579216723e-07,9.910207556236927e-07,9.909492750583187e-07
537,-0.0917754625683981,-0.0917754625683981,-0.0917754625683981,-0.0917754625683981,9.90927442323938e-07,9.910306824861e-07,9.910215542818106e-07,9.909561950819366e-07
538,-0.0929776485888251,-0.0929776485888251,-0.0929776485888251,-0.0929776485888251,9.909268920455747e-07,9.910428992679002e-07,9.910220473824237e-07,9.909648579543683e-07
539,-0.0940880768954225,-0.0940880768954225,-0.0940880768954225,-0.0940880768954225,9.90927556989601e-07,9.910559961665364e-07,9.910221854805333e-07,9.90975319051853e-07
540,-0.0951056516295153,-0.0951056516295153,-0.0951056516295153,-0.0951056516295153,9.90929578524257e-07,9.910698295859694e-07,9.910219206845517e-07,9.909876029483367e-07
541,-0.0960293685676943,-0.0960293685676943,-0.0960293685676943,-0.0960293685676943,9.909330865249644e-07,9.91084224136532e-07,9.910212078614057e-07,9.910016995342686e-07
542,-0.0968583161128631,-0.0968583161128631,-0.0968583161128631,-0.0968583161128631,9.90938195351063e-07,9.91098973026294e-07,9.910200059043762e-07,9.910175605227302e-07
543,-0.0975916761938747,-0.0975916761938747,-0.0975916761938747,-0.0975916761938747,9.909449997579812e-07,9.911138391929391e-07,9.910182790328073e-07,9.910350964555034e-07
544,-0.0982287250728689,-0.0982287250728689,-0.0982287250728689,-0.0982287250728689,9.90953570843594e-07,9.91128557231886e-07,9.910159981067869e-07,9.910541743383822e-07
545,-0.0987688340595137,-0.0987688340595137,-0.0987688340595137,-0.0987688340595137,9.9096395211885e-07,9.91142836144889e-07,9.910131419203585e-07,9.910746160148163e-07
546,-0.0992114701314478,-0.0992114701314478,-0.0992114701314478,-0.0992114701314478,9.909761558067755e-07,9.91156362924092e-07,9.910096984421736e-07,9.91096197388018e-07
547,-0.099556196460308,-0.099556196460308,-0.099556196460308,-0.099556196460308,9.909901594806574e-07,9.911688069698738e-07,9.910056659729836e-07,9.911186485937957e-07
548,-0.0998026728428271,-0.0998026728428271,-0.0998026728428271,-0.0998026728428271,9.910059031506487e-07,9.91179825316262e-07,9.91001054184282e-07,9.911416552089996e-07
549,-0.0999506560365731,-0.0999506560365731,-0.0999506560365731,-0.0999506560365731,9.910232869074877e-07,9.911890686157604e-07,9.909958850020072e-07,9.91164860563237e-07
550,-0.1,-0.1,-0.1,-0.1,9.910421692301874e-07,9.911961878134426e-07,9.909901933004003e-07,9.911878692021392e-07
551,-0.0999506560365731,-0.0999506560365731,-0.0999506560365731,-0.0999506560365731,9.910623660642106e-07,9.912008414231147e-07,9.909840273785923e-07,9.912102515327189e-07
552,-0.0998026728428271,-0.0998026728428271,-0.0998026728428271,-0.0998026728428271,9.910836507513382e-07,9.912027032785687e-07,9.909774491778623e-07,9.912315496383134e-07
553,-0.0995561964603079,-0.0995561964603079,-0.0995561964603079,-0.0995561964603079,9.911057549041552e-07,9.912014706353585e-07,9.909705342253586e-07,9.912512842460038e-07
554,-0.0992114701314477,-0.0992114701314477,-0.0992114701314477,-0.0992114701314477,9.911283702765335e-07,9.911968724510141e-07,9.909633712674434e-07,9.912689627718645e-07
555,-0.0987688340595137,-0.0987688340595137,-0.0987688340595137,-0.0987688340595137,9.911511516884384e-07,9.911886776791962e-07,9.909560615871817e-07,9.912840883631057e-07
556,-0.0982287250728688,-0.0982287250728688,-0.0982287250728688,-0.0982287250728688,9.911737210182843e-07,9.91176703373016e-07,9.909487179821876e-07,9.912961697990944e-07
557,-0.0975916761938747,-0.0975916761938747,-0.0975916761938747,-0.0975916761938747,9.911956722698157e-07,9.911608223991644e-07,9.909414634046698e-07,9.913047320988957e-07
558,-0.0968583161128631,-0.0968583161128631,-0.0968583161128631,-0.0968583161128631,9.912165776888748e-07,9.91140970550011e-07,9.909344292672912e-07,9.913093276456464e-07
559,-0.0960293685676942,-0.0960293685676942,-0.0960293685676942,-0.0960293685676942,9.912359948665654e-07,9.9111715282769e-07,9.9092775341705e-07,9.913095475982847e-07
560,-0.0951056516295153,-0.0951056516295153,-0.0951056516295153,-0.0951056516295153,9.912534747555612e-07,9.910894486944925e-07,9.909215778074224e-07,9.913050333538866e-07
561,-0.0940880768954225,-0.0940880768954225,-0.0940880768954225,-0.0940880768954225,9.912685704770164e-07,9.9105801607285e-07,9.909160458897753e-07,9.912954877823842e-07
562,-0.092977648588825,-0.092977648588825,-0.092977648588825,-0.092977648588825,9.91280846775958e-07,9.910230939009993e-07,9.909112997645064e-07,9.912806859479763e-07
563,-0.0917754625683981,-0.0917754625683981,-0.0917754625683981,-0.0917754625683981,9.912898899536087e-07,9.909850030697496e-07,9.909074771418433e-07,9.912604850195502e-07
564,-0.0904827052466018,-0.0904827052466018,-0.0904827052466018,-0.0904827052466018,9.912953180747444e-07,9.909441455878161e-07,9.909047081680198e-07,9.91234833064367e-07
565,-0.0891006524188367,-0.0891006524188367,-0.0891006524188367,-0.0891006524188367,9.91296791215473e-07,9.909010018463736e-07,9.909031121732997e-07,9.912037764135821e-07
566,-0.0876306680043862,-0.0876306680043862,-0.0876306680043862,-0.0876306680043862,9.91294021520519e-07,9.908561259153407e-07,9.909027944304675e-07,9.911674653236352e-07
567,-0.0860742027003943,-0.0860742027003943,-0.0860742027003943,-0.0860742027003943,9.912867827848462e-07,9.908101388079676e-07,9.909038429815776e-07,9.911261576387404e-07
568,-0.0844327925502014,-0.0844327925502014,-0.0844327925502014,-0.0844327925502014,9.91274919304421e-07,9.907637197386239e-07,9.909063256367141e-07,9.910802202289938e-07
569,-0.0827080574274562,-0.0827080574274562,-0.0827080574274562,-0.0827080574274562,9.912583536998554e-07,9.907175954122665e-07,9.909102872162287e-07,9.910301279788756e-07
570,-0.0809016994374946,-0.0809016994374946,-0.0809016994374946,-0.0809016994374946,9.912370934410235e-07,9.906725274603712e-07,9.909157471314614e-07,9.909764601688432e-07
571,-0.0790155012375688,-0.0790155012375688,-0.0790155012375688,-0.0790155012375688,9.91211235807189e-07,9.90629298188936e-07,9.909226973956901e-07,9.909198941426612e-07
572,-0.0770513242775788,-0.0770513242775788,-0.0770513242775788,-0.0770513242775788,9.911809710153214e-07,9.905886948407253e-07,9.90931101134194e-07,9.90861196194473e-07
573,-0.0750111069630458,-0.0750111069630458,-0.0750111069630458,-0.0750111069630458,9.91146583314609e-07,9.90551492666866e-07,9.909408916968696e-07,9.90801209715951e-07
574,-0.0728968627421411,-0.0728968627421411,-0.0728968627421411,-0.0728968627421411,9.911084498364552e-07,9.905184371125003e-07,9.909519724253422e-07,9.907408406726602e-07
575,-0.0707106781186546,-0.0707106781186546,-0.0707106781186546,-0.0707106781186546,9.91067037060895e-07,9.904902254980193e-07,9.909642171454847e-07,9.906810405835974e-07
576,-0.0684547105928688,-0.0684547105928688,-0.0684547105928688,-0.0684547105928688,9.910228947958412e-07,9.90467488605932e-07,9.909774714277517e-07,9.906227872397197e-07
577,-0.0661311865323653,-0.0661311865323653,-0.0661311865323653,-0.0661311865323653,9.909766476369053e-07,9.90450772633713e-07,9.909915546563097e-07,9.90567063488595e-07
578,-0.063742398974869,-0.063742398974869,-0.063742398974869,-0.063742398974869,9.909289839265072e-07,9.904405219887882e-07,9.910062629167181e-07,9.90514834473833e-07
579,-0.0612907053652978,-0.0612907053652978,-0.0612907053652978,-0.0612907053652978,9.908806423065016e-07,9.904370634288807e-07,9.910213726988894e-07,9.904670237959027e-07
580,-0.0587785252292473,-0.0587785252292473,-0.0587785252292473,-0.0587785252292473,9.908323960277205e-07,9.90440592056709e-07,9.910366453868988e-07,9.904244891214142e-07
581,-0.0562083377852132,-0.0562083377852132,-0.0562083377852132,-0.0562083377852132,9.907850352594957e-07,9.904511596837007e-07,9.91051832489566e-07,9.903879978301194e-07
582,-0.0535826794978997,-0.0535826794978997,-0.0535826794978997,-0.0535826794978997,9.907393477121595e-07,9.904686660587702e-07,9.910666815374393e-07,9.90358203329718e-07
583,-0.0509041415750373,-0.0509041415750373,-0.0509041415750373,-0.0509041415750373,9.90696097952697e-07,9.90492853430345e-07,9.910809425423864e-07,9.903356226983163e-07
584,-0.0481753674101716,-0.0481753674101716,-0.0481753674101716,-0.0481753674101716,9.90656005870989e-07,9.905233048798715e-07,9.91094374901534e-07,9.903206163438406e-07
585,-0.0453990499739549,-0.0453990499739549,-0.0453990499739549,-0.0453990499739549,9.90619724801917e-07,9.905594468027695e-07,9.911067545897643e-07,9.903133703627398e-07
586,-0.0425779291565074,-0.0425779291565074,-0.0425779291565074,-0.0425779291565074,9.905878198789515e-07,9.906005558663632e-07,9.911178814817126e-07,9.903138822887108e-07
587,-0.039714789063478,-0.039714789063478,-0.039714789063478,-0.039714789063478,9.905607472120343e-07,9.906457706733856e-07,9.911275865983407e-07,9.903219508720243e-07
588,-0.036812455268468,-0.036812455268468,-0.036812455268468,-0.036812455268468,9.905388345301248e-07,9.906941082894853e-07,9.911357390754286e-07,9.903371705075983e-07
589,-0.0338737920245291,-0.0338737920245291,-0.0338737920245291,-0.0338737920245291,9.905222639366548e-07,9.907444856833453e-07,9.911422526297e-07,9.903589308646777e-07
590,-0.0309016994374949,-0.0309016994374949,-0.0309016994374949,-0.0309016994374949,9.905110574214758e-07,9.907957460117963e-07,9.911470912847856e-07,9.9038642219459e-07
591,-0.027899110603923,-0.027899110603923,-0.027899110603923,-0.027899110603923,9.905050657630654e-07,9.908466895617596e-07,9.911502741214888e-07,9.904186467104414e-07
592,-0.0248689887164857,-0.0248689887164857,-0.0248689887164857,-0.0248689887164857,9.905039614224604e-07,9.908961090296469e-07,9.911518788183645e-07,9.904544363324183e-07
593,-0.0218143241396543,-0.0218143241396543,-0.0218143241396543,-0.0218143241396543,9.905072359712151e-07,9.909428286608846e-07,9.91152043747212e-07,9.904924769649578e-07
594,-0.0187381314585727,-0.0187381314585727,-0.0187381314585727,-0.0187381314585727,9.905142025407684e-07,9.909857466339674e-07,9.911509684120277e-07,9.905313393547477e-07
595,-0.0156434465040232,-0.0156434465040232,-0.0156434465040232,-0.0156434465040232,9.905240037033584e-07,9.9102387991621e-07,9.911489120466644e-07,9.90569516439986e-07
596,-0.0125333233564304,-0.0125333233564304,-0.0125333233564304,-0.0125333233564304,9.90535625088954e-07,9.910564106469648e-07,9.911461902032976e-07,9.906054669366232e-07
597,-0.0094108313318516,-0.0094108313318516,-0.0094108313318516,-0.0094108313318516,9.905479149497163e-07,9.91082732955726e-07,9.911431692170714e-07,9.906376647572647e-07
598,-0.0062790519529313,-0.0062790519529313,-0.0062790519529313,-0.0062790519529313,9.905596097576227e-07,9.911024989561434e-07,9.911402584685247e-07,9.906646536737434e-07
599,-0.003141075907813,-0.003141075907813,-0.003141075907813,-0.003141075907813,9.90569365801174e-07,9.911156625155985e-07,9.911379004272726e-07,9.906851064564754e-07
600,-7.347880794884119e-17,-7.347880794884119e-17,-7.347880794884119e-17,-7.347880794884119e-17,9.905757966059455e-07,9.91122519256577e-07,9.911365585143324e-07,9.906978875196307e-07
601,0.0031410759078125,0.0031410759078125,0.0031410759078125,0.0031410759078125,9.90577515867055e-07,9.911237411384115e-07,9.911367028923745e-07,9.907021179018439e-07
602,0.0062790519529312,0.0062790519529312,0.0062790519529312,0.0062790519529312,9.905731854298763e-07,9.911204038749674e-07,9.911387943605515e-07,9.906972411929742e-07
603,0.0094108313318511,0.0094108313318511,0.0094108313318511,0.0094108313318511,9.905615677026838e-07,9.911140053961213e-07,9.91143266606123e-07,9.906830887993045e-07
604,0.0125333233564302,0.0125333233564302,0.0125333233564302,0.0125333233564302,9.90541581726513e-07,9.911064735550687e-07,9.91150507138434e-07,9.906599427182037e-07
605,0.0156434465040231,0.0156434465040231,0.0156434465040231,0.0156434465040231,9.905123619635448e-07,9.91100161334128e-07,9.911608373064951e-07,9.90628593774504e-07
606,0.0187381314585722,0.0187381314585722,0.0187381314585722,0.0187381314585722,9.904733186971035e-07,9.910978279175486e-07,9.911744918672745e-07,9.90590393064784e-07
607,0.0218143241396542,0.0218143241396542,0.0218143241396542,0.0218143241396542,9.904241987685104e-07,9.91102604193506e-07,9.91191598642491e-07,9.905472941744417e-07
608,0.0248689887164852,0.0248689887164852,0.0248689887164852,0.0248689887164852,9.903651451959356e-07,9.911179415146135e-07,9.912121588457063e-07,9.905018835753306e-07
609,0.0278991106039228,0.0278991106039228,0.0278991106039228,0.0278991106039228,9.902967540565398e-07,9.911475429211386e-07,9.912360287192345e-07,9.90457396522336e-07
610,0.0309016994374945,0.0309016994374945,0.0309016994374945,0.0309016994374945,9.902201268379788e-07,9.911952764761415e-07,9.912629031416285e-07,9.904177157255655e-07
611,0.033873792024529,0.033873792024529,0.033873792024529,0.033873792024529,9.901369163000777e-07,9.912650709147988e-07,9.912923018781907e-07,9.903873501289548e-07
612,0.0368124552684675,0.0368124552684675,0.0368124552684675,0.0368124552684675,9.90049363753421e-07,9.913607944398943e-07,9.913235591589283e-07,9.903713912904666e-07
613,0.0397147890634779,0.0397147890634779,0.0397147890634779,0.0397147890634779,9.899603255165758e-07,9.914861182032936e-07,9.913558172164826e-07,9.903754451320324e-07
614,0.0425779291565072,0.0425779291565072,0.0425779291565072,0.0425779291565072,9.898732862540139e-07,9.916443667728413e-07,9.913880244148699e-07,9.904055372742584e-07
615,0.0453990499739545,0.0453990499739545,0.0453990499739545,0.0453990499739545,9.897923568237326e-07,9.918383586823284e-07,9.914189384843083e-07,9.904679907401647e-07
616,0.0481753674101715,0.0481753674101715,0.0481753674101715,0.0481753674101715,9.897222543183032e-07,9.920702409443662e-07,9.914471353511834e-07,9.905692755902476e-07
617,0.0509041415750369,0.0509041415750369,0.0509041415750369,0.0509041415750369,9.896682620539807e-07,9.923413221670586e-07,9.91471023883447e-07,9.907158309560551e-07
618,0.0535826794978996,0.0535826794978996,0.0535826794978996,0.0535826794978996,9.896361674907612e-07,9.926519095850933e-07,9.914888668160044e-07,9.909138610542799e-07
619,0.0562083377852128,0.0562083377852128,0.0562083377852128,0.0562083377852128,9.896321763746792e-07,9.930011558690428e-07,9.914988079350026e-07,9.911691079806522e-07
620,0.0587785252292472,0.0587785252292472,0.0587785252292472,0.0587785252292472,9.896628018178155e-07,9.933869219442304e-07,9.914989054663462e-07,9.914866054152593e-07
621,0.0612907053652977,0.0612907053652977,0.0612907053652977,0.0612907053652977,9.89734727684357e-07,9.93805662225097e-07,9.91487171485026e-07,9.918704187957445e-07
622,0.0637423989748688,0.0637423989748688,0.0637423989748688,0.0637423989748688,9.898546462957965e-07,9.942523385914239e-07,9.914616169204843e-07,9.923233788603105e-07
623,0.0661311865323652,0.0661311865323652,0.0661311865323652,0.0661311865323652,9.90029071497783e-07,9.947203690529631e-07,9.914203017069254e-07,9.928468168403908e-07
624,0.0684547105928687,0.0684547105928687,0.0684547105928687,0.0684547105928687,9.90264129008259e-07,9.952016164566208e-07,9.913613892809572e-07,9.93440310661924e-07
625,0.0707106781186547,0.0707106781186547,0.0707106781186547,0.0707106781186547,9.905653272822562e-07,9.956864215513636e-07,9.91283204702027e-07,9.941014524712859e-07
626,0.072896862742141,0.072896862742141,0.072896862742141,0.072896862742141,9.909373132288165e-07,9.961636836625405e-07,9.911842952832457e-07,9.948256483167057e-07
627,0.0750111069630459,0.0750111069630459,0.0750111069630459,0.0750111069630459,9.913836185028174e-07,9.9662099058659e-07,9.91063492747448e-07,9.95605960965013e-07
628,0.0770513242775787,0.0770513242775787,0.0770513242775787,0.0770513242775787,9.919064033228896e-07,9.970447978887984e-07,9.909199755886708e-07,9.964330065081956e-07
629,0.079015501237569,0.079015501237569,0.079015501237569,0.079015501237569,9.925062058678502e-07,9.974206557686414e-07,9.907533303801567e-07,9.9729491444295e-07
630,0.0809016994374948,0.0809016994374948,0.0809016994374948,0.0809016994374948,9.931817065151955e-07,9.977334800606062e-07,9.905636106581349e-07,9.981773596265178e-07
631,0.0827080574274561,0.0827080574274561,0.0827080574274561,0.0827080574274561,9.939295166097365e-07,9.97967861959872e-07,9.903513918661596e-07,9.990636723504671e-07
632,0.0844327925502015,0.0844327925502015,0.0844327925502015,0.0844327925502015,9.94744002335439e-07,9.98108409444601e-07,9.901178210577757e-07,9.99935030536196e-07
633,0.0860742027003943,0.0860742027003943,0.0860742027003943,0.0860742027003943,9.956171537420488e-07,9.981401119849076e-07,9.898646596299457e-07,1.0007707349769984e-06
634,0.0876306680043863,0.0876306680043863,0.0876306680043863,0.0876306680043863,9.965385091704065e-07,9.980487186684472e-07,9.895943179487741e-07,1.0015485655618219e-06
635,0.0891006524188367,0.0891006524188367,0.0891006524188367,0.0891006524188367,9.97495143764699e-07,9.978211195634648e-07,9.893098800015986e-07,1.0022452129340258e-06
636,0.0904827052466019,0.0904827052466019,0.0904827052466019,0.0904827052466019,9.984717299067478e-07,9.97445719090289e-07,9.890151171179695e-07,1.0028367766944878e-06
637,0.091775462568398,0.091775462568398,0.091775462568398,0.091775462568398,9.994506750422983e-07,9.969127912032676e-07,9.887144889143564e-07,1.0032993180564607e-06
638,0.0929776485888251,0.0929776485888251,0.0929776485888251,0.0929776485888251,1.0004123402021593e-06,9.9621480588486e-07,9.884131306035515e-07,1.0036094516809422e-06
639,0.0940880768954225,0.0940880768954225,0.0940880768954225,0.0940880768954225,1.0013353398429706e-06,9.953467187273113e-07,9.881168250875303e-07,1.0037449591719366e-06
640,0.0951056516295153,0.0951056516295153,0.0951056516295153,0.0951056516295153,1.0021969201190966e-06,9.943062162651968e-07,9.878319589244242e-07,1.0036854043366782e-06
641,0.0960293685676943,0.0960293685676943,0.0960293685676943,0.0960293685676943,1.002973410355716e-06,9.930939127427626e-07,9.875654612075136e-07,1.0034127295799418e-06
642,0.0968583161128631,0.0968583161128631,0.0968583161128631,0.0968583161128631,1.0036407378611366e-06,9.91713496390499e-07,9.87324724211915e-07,1.0029118118668776e-06
643,0.0975916761938747,0.0975916761938747,0.0975916761938747,0.0975916761938747,1.004174994831099e-06,9.901718262671336e-07,9.871175058880697e-07,1.0021709579074894e-06
644,0.0982287250728688,0.0982287250728688,0.0982287250728688,0.0982287250728688,1.004553040974578e-06,9.884789845729832e-07,9.869518127812498e-07,1.0011823193357695e-06
645,0.0987688340595137,0.0987688340595137,0.0987688340595137,0.0987688340595137,1.004753125310718e-06,9.866482912697092e-07,9.868357648226619e-07,9.999422120303862e-07
646,0.0992114701314477,0.0992114701314477,0.0992114701314477,0.0992114701314477,1.0047555061362008e-06,9.84696292531436e-07,9.867774406117923e-07,9.984513274539432e-07
647,0.099556196460308,0.099556196460308,0.099556196460308,0.099556196460308,1.0045430489036956e-06,9.826427343524628e-07,9.867847060580324e-07,9.967148292743498e-07
648,0.0998026728428271,0.0998026728428271,0.0998026728428271,0.0998026728428271,1.0041017795861792e-06,9.80510536779238e-07,9.868650258437356e-07,9.947423351115457e-07
649,0.0999506560365731,0.0999506560365731,0.0999506560365731,0.0999506560365731,1.0034213721371181e-06,9.783257810983626e-07,9.870252616959266e-07,9.92547790090102e-07
650,0.1,0.1,0.1,0.1,1.0024955504268933e-06,9.761177237438517e-07,9.872714590090916e-07,9.901492477478093e-07
651,0.0999506560365731,0.0999506560365731,0.0999506560365731,0.0999506560365731,1.0013223858139648e-06,9.73918844454367e-07,9.87608626242537e-07,9.875685809870185e-07
652,0.0998026728428271,0.0998026728428271,0.0998026728428271,0.0998026728428271,9.99904478355691e-07,9.71764932489781e-07,9.88040512148879e-07,9.848311551533105e-07
653,0.099556196460308,0.099556196460308,0.099556196460308,0.099556196460308,9.982490101045585e-07,9.696952061830646e-07,9.88569384770628e-07,9.819655007634224e-07
654,0.0992114701314477,0.0992114701314477,0.0992114701314477,0.0992114701314477,9.963676708042609e-07,9.677524504696706e-07,9.89195821851029e-07,9.790030302102103e-07
655,0.0987688340595138,0.0987688340595138,0.0987688340595138,0.0987688340595138,9.942764570322813e-07,9.65983148306504e-07,9.89918515346903e-07,9.759778437245296e-07
656,0.0982287250728688,0.0982287250728688,0.0982287250728688,0.0982287250728688,9.919953608172245e-07,9.644375645019773e-07,9.907341041912011e-07,9.729266698963164e-07
657,0.0975916761938747,0.0975916761938747,0.0975916761938747,0.0975916761938747,9.89547965892316e-07,9.631697351403925e-07,9.916370366768251e-07,9.698889795193796e-07
658,0.0968583161128631,0.0968583161128631,0.0968583161128631,0.0968583161128631,9.869609838740686e-07,9.622372951581075e-07,9.926194791175058e-07,9.669073005844712e-07
659,0.0960293685676942,0.0960293685676942,0.0960293685676942,0.0960293685676942,9.84263766968939e-07,9.617010793575286e-07,9.936712718851954e-07,9.640277460776203e-07
660,0.0951056516295154,0.0951056516295154,0.0951056516295154,0.0951056516295154,9.814878416029395e-07,9.616244162931425e-07,9.947799478427836e-07,9.613007419210793e-07
661,0.0940880768954225,0.0940880768954225,0.0940880768954225,0.0940880768954225,9.786665132678676e-07,9.620720495396491e-07,9.959308160754531e-07,9.587819167801657e-07
662,0.0929776485888251,0.0929776485888251,0.0929776485888251,0.0929776485888251,9.758345887059157e-07,9.63108621932198e-07,9.971071186278015e-07,9.56533079229801e-07
663,0.0917754625683981,0.0917754625683981,0.0917754625683981,0.0917754625683981,9.730282665510844e-07,9.64796686626638e-07,9.982902672853783e-07,9.546231768764243e-07
664,0.0904827052466018,0.0904827052466018,0.0904827052466018,0.0904827052466018,9.702852275347846e-07,9.671942395817579e-07,9.994601552481653e-07,9.531290915210785e-07
665,0.0891006524188367,0.0891006524188367,0.0891006524188367,0.0891006524188367,9.67644955549186e-07,9.703518024684856e-07,1.0005955558702106e-06,9.521360980762947e-07
666,0.0876306680043862,0.0876306680043862,0.0876306680043862,0.0876306680043862,9.651492850732904e-07,9.743091512919396e-07,1.0016745874464242e-06,9.517377863436593e-07
667,0.0860742027003943,0.0860742027003943,0.0860742027003943,0.0860742027003943,9.628431617810496e-07,9.790918088518598e-07,1.0026752592062499e-06,9.520352393231511e-07
668,0.0844327925502014,0.0844327925502014,0.0844327925502014,0.0844327925502014,9.607755575729483e-07,9.847075112821324e-07,1.0035760634041255e-06,9.531352702760384e-07
669,0.0827080574274562,0.0827080574274562,0.0827080574274562,0.0827080574274562,9.59000460983433e-07,9.91142846847273e-07,1.0043566251794371e-06,9.551475563867808e-07
670,0.0809016994374947,0.0809016994374947,0.0809016994374947,0.0809016994374947,9.57577822087312e-07,9.983603554642769e-07,1.0049983685072013e-06,9.581805795936695e-07
671,0.0790155012375691,0.0790155012375691,0.0790155012375691,0.0790155012375691,9.565742990766782e-07,1.0062963185468364e-06,1.0054851963657738e-06,9.623363727380597e-07
672,0.0770513242775788,0.0770513242775788,0.0770513242775788,0.0770513242775788,9.560636375710499e-07,1.0148595203642938e-06,1.0058041486264266e-06,9.677042128450042e-07
673,0.0750111069630458,0.0750111069630458,0.0750111069630458,0.0750111069630458,9.561264745486871e-07,1.0239311771110521e-06,1.0059460120988198e-06,9.743535212633648e-07
674,0.0728968627421411,0.0728968627421411,0.0728968627421411,0.0728968627421411,9.568493968965767e-07,1.0333662111170414e-06,1.0059058633287387e-06,9.823264027309388e-07
675,0.0707106781186546,0.0707106781186546,0.0707106781186546,0.0707106781186546,9.583230496329971e-07,1.0429959930976559e-06,1.0056834903383014e-06,9.91630338292189e-07
676,0.0684547105928688,0.0684547105928688,0.0684547105928688,0.0684547105928688,9.606392060871867e-07,1.0526325687390926e-06,1.0052836978554181e-06,1.0022316575238264e-06
677,0.066131186532365,0.066131186532365,0.066131186532365,0.066131186532365,9.63886700660107e-07,1.0620744251394308e-06,1.0047164207818158e-06,1.0140503931879595e-06
678,0.063742398974869,0.063742398974869,0.063742398974869,0.063742398974869,9.68146317798941e-07,1.0711136573226097e-06,1.003996672628988e-06,1.0269570915439336e-06
679,0.0612907053652975,0.0612907053652975,0.0612907053652975,0.0612907053652975,9.734847629220458e-07,1.079544549977661e-06,1.0031442525394856e-06,1.0407720282028545e-06
680,0.0587785252292473,0.0587785252292473,0.0587785252292473,0.0587785252292473,9.799480447851666e-07,1.0871733266150835e-06,1.0021832504119965e-06,1.0552671146145965e-06
681,0.0562083377852129,0.0562083377852129,0.0562083377852129,0.0562083377852129,9.875546870949038e-07,1.0938290356066577e-06,1.0011413018875303e-06,1.0701706603993496e-06
682,0.0535826794978994,0.0535826794978994,0.0535826794978994,0.0535826794978994,9.962892654136536e-07,1.0993752601245122e-06,1.0000486348816294e-06,1.0851749381213103e-06
683,0.0509041415750371,0.0509041415750371,0.0509041415750371,0.0509041415750371,1.0060969181939178e-06,1.1037224933593839e-06,9.989369139418314e-07,1.0999464985914822e-06
684,0.0481753674101713,0.0481753674101713,0.0481753674101713,0.0481753674101713,1.0168792845308664e-06,1.106840777543518e-06,9.978379229987644e-07,1.1141389878562905e-06
685,0.0453990499739546,0.0453990499739546,0.0453990499739546,0.0453990499739546,1.0284925629621493e-06,1.1087721454442041e-06,9.967821560973129e-07,1.1274083594377646e-06
686,0.0425779291565071,0.0425779291565071,0.0425779291565071,0.0425779291565071,1.0407478693989751e-06,1.1096422226005747e-06,9.957973636577496e-07,1.1394302223133463e-06
687,0.039714789063478,0.039714789063478,0.039714789063478,0.039714789063478,1.0534144335296077e-06,1.1096699826731277e-06,9.949071690383529e-07,1.149919244948893e-06
688,0.0368124552684676,0.0368124552684676,0.0368124552684676,0.0368124552684676,1.066225475906387e-06,1.1091744885731737e-06,9.941298227765396e-07,1.1586504091547589e-06
689,0.0338737920245292,0.0338737920245292,0.0338737920245292,0.0338737920245292,1.0788870434721157e-06,1.1085768834194625e-06,9.934772141739662e-07,1.1654819445616756e-06
690,0.0309016994374946,0.0309016994374946,0.0309016994374946,0.0309016994374946,1.0910894933761761e-06,1.1083957645310254e-06,9.929542279394065e-07,1.170379609787091e-06
691,0.0278991106039226,0.0278991106039226,0.0278991106039226,0.0278991106039226,1.1025216219566718e-06,1.10923379419699e-06,9.925585284597652e-07,1.1734416599867996e-06
692,0.0248689887164854,0.0248689887164854,0.0248689887164854,0.0248689887164854,1.1128872710852414e-06,1.1117536791966689e-06,9.922808507299332e-07,1.174923450883744e-06
693,0.021814324139654,0.021814324139654,0.021814324139654,0.021814324139654,1.1219241115303522e-06,1.1166425659615969e-06,9.921058248536008e-07,1.1752597023115888e-06
694,0.0187381314585724,0.0187381314585724,0.0187381314585724,0.0187381314585724,1.1294247348187589e-06,1.124565375224952e-06,9.920133454268606e-07,1.1750815263041925e-06
695,0.0156434465040229,0.0156434465040229,0.0156434465040229,0.0156434465040229,1.1352593777942082e-06,1.1361100205666402e-06,9.91980470622873e-07,1.175223785110133e-06
696,0.0125333233564304,0.0125333233564304,0.0125333233564304,0.0125333233564304,1.139400488517468e-06,1.1517299961172413e-06,9.919837327384258e-07,1.176717074827958e-06
697,0.0094108313318512,0.0094108313318512,0.0094108313318512,0.0094108313318512,1.141947860484956e-06,1.1716913399534107e-06,9.920018264738307e-07,1.1807577334494154e-06
698,0.0062790519529313,0.0062790519529313,0.0062790519529313,0.0062790519529313,1.1431538269136893e-06,1.196032315294294e-06,9.920184089449576e-07,1.188649968966133e-06
699,0.0031410759078127,0.0031410759078127,0.0031410759078127,0.0031410759078127,1.1434460620188884e-06,1.22454086231357e-06,9.920249530532648e-07,1.201717642891714e-06
700,-2.6954609193973543e-16,-2.6954609193973543e-16,-2.6954609193973543e-16,-2.6954609193973543e-16,1.1434453888292574e-06,1.256754281957351e-06,9.920232989320037e-07,1.221189860547838e-06
701,-0.0031410759078129,-0.0031410759078129,-0.0031410759078129,-0.0031410759078129,1.1439739326538733e-06,1.2919783534639566e-06,9.92027774584082e-07,1.2480732221128835e-06
702,-0.0062790519529315,-0.0062790519529315,-0.0062790519529315,-0.0062790519529315,1.1460479525647704e-06,1.3293244145629419e-06,9.920665531489055e-07,1.283031626089314e-06
703,-0.0094108313318514,-0.0094108313318514,-0.0094108313318514,-0.0094108313318514,1.1508485571742757e-06,1.367756817181645e-06,9.921820322366666e-07,1.3262957948987853e-06
704,-0.0125333233564302,-0.0125333233564302,-0.0125333233564302,-0.0125333233564302,1.159664723547953e-06,1.4061480660600579e-06,9.924299932080174e-07,1.377620101326834e-06
705,-0.0156434465040227,-0.0156434465040227,-0.0156434465040227,-0.0156434465040227,1.1738054557447659e-06,1.4433364303547501e-06,9.92877401610724e-07,1.4362901525722372e-06
706,-0.0187381314585722,-0.0187381314585722,-0.0187381314585722,-0.0187381314585722,1.1944868452305069e-06,1.4781850062686044e-06,9.935985941089444e-07,1.5011746491945533e-06
707,-0.0218143241396542,-0.0218143241396542,-0.0218143241396542,-0.0218143241396542,1.2227049118018896e-06,1.5096425635373992e-06,9.946702352928118e-07,1.5708043553479396e-06
